timestamp_ms,ecg_raw
1777572188436,1929
1777572188438,1943
1777572188440,1967
1777572188442,1989
1777572188444,1988
1777572188446,1979
1777572188448,1959
1777572188450,1936
1777572188452,1913
1777572188454,1903
1777572188436,1898
1777572188438,1918
1777572188440,1928
1777572188442,1992
1777572188444,2011
1777572188446,2015
1777572188448,1992
1777572188450,1966
1777572188452,1929
1777572188454,1900
1777572188436,1901
1777572188438,1923
1777572188440,1934
1777572188442,1946
1777572188444,1963
1777572188446,1956
1777572188448,1924
1777572188450,1903
1777572188452,1921
1777572188454,1951
1777572188494,1972
1777572188496,1988
1777572188498,2003
1777572188500,2020
1777572188502,2019
1777572188504,2006
1777572188506,2021
1777572188508,1991
1777572188510,1958
1777572188512,1933
1777572188494,1932
1777572188496,1936
1777572188498,1945
1777572188500,1969
1777572188502,1984
1777572188504,1980
1777572188506,1975
1777572188508,1970
1777572188510,1947
1777572188512,1946
1777572188527,1963
1777572188529,1985
1777572188531,2013
1777572188533,2057
1777572188535,2108
1777572188537,2150
1777572188539,2180
1777572188541,2193
1777572188543,2288
1777572188545,2353
1777572188527,2435
1777572188529,2524
1777572188531,2617
1777572188533,2712
1777572188535,2797
1777572188537,2845
1777572188539,2862
1777572188541,2850
1777572188543,2816
1777572188545,2783
1777572188590,2751
1777572188592,2700
1777572188594,2622
1777572188596,2526
1777572188598,2436
1777572188600,2359
1777572188602,2291
1777572188604,2198
1777572188606,2105
1777572188608,2041
1777572188590,2029
1777572188592,2057
1777572188594,2072
1777572188596,2086
1777572188598,2092
1777572188600,2089
1777572188602,2067
1777572188604,2048
1777572188606,2041
1777572188608,2055
1777572188623,2081
1777572188625,2111
1777572188627,2145
1777572188629,2173
1777572188631,2194
1777572188633,2203
1777572188635,2193
1777572188637,2172
1777572188639,2158
1777572188641,2152
1777572188623,2164
1777572188625,2191
1777572188627,2185
1777572188629,2234
1777572188631,2249
1777572188633,2262
1777572188635,2245
1777572188637,2217
1777572188639,2215
1777572188641,2211
1777572188623,2201
1777572188625,2208
1777572188627,2222
1777572188629,2245
1777572188631,2265
1777572188633,2275
1777572188635,2264
1777572188637,2237
1777572188639,2213
1777572188641,2200
1777572188675,2201
1777572188677,2228
1777572188679,2266
1777572188681,2293
1777572188683,2319
1777572188685,2323
1777572188687,2343
1777572188689,2298
1777572188691,2250
1777572188693,2221
1777572188675,2216
1777572188677,2221
1777572188679,2232
1777572188681,2239
1777572188683,2257
1777572188685,2266
1777572188687,2255
1777572188689,2233
1777572188691,2205
1777572188693,2214
1777572188719,2229
1777572188721,2255
1777572188723,2273
1777572188725,2299
1777572188727,2315
1777572188729,2328
1777572188731,2334
1777572188733,2315
1777572188735,2348
1777572188737,2341
1777572188719,2348
1777572188721,2377
1777572188723,2402
1777572188725,2404
1777572188727,2397
1777572188729,2410
1777572188731,2416
1777572188733,2405
1777572188735,2401
1777572188737,2409
1777572188752,2420
1777572188754,2442
1777572188756,2485
1777572188758,2519
1777572188760,2534
1777572188762,2537
1777572188764,2518
1777572188766,2493
1777572188768,2478
1777572188770,2478
1777572188752,2501
1777572188754,2542
1777572188756,2552
1777572188758,2554
1777572188760,2549
1777572188762,2535
1777572188764,2488
1777572188766,2449
1777572188768,2432
1777572188770,2427
1777572188814,2436
1777572188816,2468
1777572188818,2497
1777572188820,2521
1777572188822,2532
1777572188824,2524
1777572188826,2495
1777572188828,2456
1777572188830,2418
1777572188832,2396
1777572188814,2392
1777572188816,2406
1777572188818,2396
1777572188820,2427
1777572188822,2422
1777572188824,2397
1777572188826,2347
1777572188828,2291
1777572188830,2255
1777572188832,2233
1777572188814,2232
1777572188816,2236
1777572188818,2235
1777572188820,2241
1777572188822,2238
1777572188824,2234
1777572188826,2208
1777572188828,2182
1777572188830,2153
1777572188832,2136
1777572188845,2135
1777572188847,2146
1777572188849,2160
1777572188851,2155
1777572188853,2147
1777572188855,2144
1777572188857,2151
1777572188859,2100
1777572188861,2054
1777572188863,2028
1777572188845,2015
1777572188847,2013
1777572188849,2018
1777572188851,2040
1777572188853,2058
1777572188855,2043
1777572188857,2031
1777572188859,1999
1777572188861,1963
1777572188863,1945
1777572188887,1962
1777572188889,1983
1777572188891,2016
1777572188893,2051
1777572188895,2067
1777572188897,2057
1777572188899,2022
1777572188901,1976
1777572188903,2012
1777572188905,2024
1777572188887,2030
1777572188889,2056
1777572188891,2074
1777572188893,2079
1777572188895,2072
1777572188897,2062
1777572188899,2052
1777572188901,2037
1777572188903,2024
1777572188905,2010
1777572188942,2018
1777572188944,2040
1777572188946,2073
1777572188948,2102
1777572188950,2119
1777572188952,2117
1777572188954,2095
1777572188956,2079
1777572188958,2060
1777572188960,2059
1777572188942,2086
1777572188944,2138
1777572188946,2164
1777572188948,2176
1777572188950,2177
1777572188952,2164
1777572188954,2126
1777572188956,2096
1777572188958,2085
1777572188960,2075
1777572188977,2091
1777572188979,2119
1777572188981,2137
1777572188983,2151
1777572188985,2153
1777572188987,2153
1777572188989,2152
1777572188991,2137
1777572188993,2122
1777572188995,2119
1777572188977,2119
1777572188979,2125
1777572188981,2121
1777572188983,2167
1777572188985,2197
1777572188987,2207
1777572188989,2181
1777572188991,2142
1777572188993,2121
1777572188995,2118
1777572188977,2119
1777572188979,2127
1777572188981,2164
1777572188983,2204
1777572188985,2233
1777572188987,2238
1777572188989,2203
1777572188991,2152
1777572188993,2092
1777572188995,2074
1777572189039,2113
1777572189041,2164
1777572189043,2185
1777572189045,2211
1777572189047,2226
1777572189049,2235
1777572189051,2256
1777572189053,2224
1777572189055,2184
1777572189057,2146
1777572189039,2127
1777572189041,2119
1777572189043,2134
1777572189045,2154
1777572189047,2162
1777572189049,2153
1777572189051,2142
1777572189053,2122
1777572189055,2121
1777572189057,2124
1777572189070,2135
1777572189072,2143
1777572189074,2173
1777572189076,2194
1777572189078,2211
1777572189080,2217
1777572189082,2202
1777572189084,2160
1777572189086,2168
1777572189088,2147
1777572189070,2143
1777572189072,2158
1777572189074,2182
1777572189076,2199
1777572189078,2201
1777572189080,2200
1777572189082,2173
1777572189084,2134
1777572189086,2110
1777572189088,2126
1777572189111,2135
1777572189113,2149
1777572189115,2176
1777572189117,2205
1777572189119,2219
1777572189121,2215
1777572189123,2195
1777572189125,2169
1777572189127,2145
1777572189129,2125
1777572189111,2132
1777572189113,2180
1777572189115,2215
1777572189117,2230
1777572189119,2237
1777572189121,2213
1777572189123,2165
1777572189125,2121
1777572189127,2097
1777572189129,2109
1777572189111,2129
1777572189113,2157
1777572189115,2181
1777572189117,2188
1777572189119,2186
1777572189121,2185
1777572189123,2175
1777572189125,2157
1777572189127,2126
1777572189129,2109
1777572189166,2115
1777572189168,2143
1777572189170,2148
1777572189172,2195
1777572189174,2193
1777572189176,2174
1777572189178,2130
1777572189180,2083
1777572189182,2060
1777572189184,2071
1777572189166,2090
1777572189168,2104
1777572189170,2106
1777572189172,2106
1777572189174,2110
1777572189176,2109
1777572189178,2098
1777572189180,2079
1777572189182,2066
1777572189184,2078
1777572189201,2094
1777572189203,2109
1777572189205,2133
1777572189207,2151
1777572189209,2141
1777572189211,2141
1777572189213,2155
1777572189215,2143
1777572189217,2123
1777572189219,2110
1777572189201,2107
1777572189203,2108
1777572189205,2126
1777572189207,2148
1777572189209,2156
1777572189211,2164
1777572189213,2144
1777572189215,2122
1777572189217,2120
1777572189219,2117
1777572189263,2136
1777572189265,2161
1777572189267,2192
1777572189269,2217
1777572189271,2215
1777572189273,2186
1777572189275,2158
1777572189277,2120
1777572189279,2133
1777572189281,2117
1777572189263,2115
1777572189265,2133
1777572189267,2174
1777572189269,2200
1777572189271,2200
1777572189273,2191
1777572189275,2167
1777572189277,2140
1777572189279,2124
1777572189281,2136
1777572189294,2138
1777572189296,2154
1777572189298,2175
1777572189300,2206
1777572189302,2216
1777572189304,2216
1777572189306,2194
1777572189308,2171
1777572189310,2144
1777572189312,2116
1777572189294,2123
1777572189296,2166
1777572189298,2198
1777572189300,2211
1777572189302,2209
1777572189304,2204
1777572189306,2192
1777572189308,2172
1777572189310,2168
1777572189312,2171
1777572189294,2186
1777572189296,2211
1777572189298,2252
1777572189300,2288
1777572189302,2299
1777572189304,2296
1777572189306,2269
1777572189308,2226
1777572189310,2189
1777572189312,2187
1777572189336,2188
1777572189338,2203
1777572189340,2215
1777572189342,2274
1777572189344,2271
1777572189346,2253
1777572189348,2223
1777572189350,2185
1777572189352,2145
1777572189354,2117
1777572189336,2114
1777572189338,2125
1777572189340,2136
1777572189342,2152
1777572189344,2164
1777572189346,2160
1777572189348,2151
1777572189350,2130
1777572189352,2101
1777572189354,2087
1777572189389,2086
1777572189391,2107
1777572189393,2145
1777572189395,2178
1777572189397,2175
1777572189399,2177
1777572189401,2175
1777572189403,2143
1777572189405,2113
1777572189407,2100
1777572189389,2098
1777572189391,2112
1777572189393,2125
1777572189395,2140
1777572189397,2139
1777572189399,2128
1777572189401,2095
1777572189403,2066
1777572189405,2052
1777572189407,2051
1777572189426,2075
1777572189428,2114
1777572189430,2137
1777572189432,2138
1777572189434,2129
1777572189436,2120
1777572189438,2117
1777572189440,2080
1777572189442,2104
1777572189444,2105
1777572189426,2112
1777572189428,2125
1777572189430,2136
1777572189432,2145
1777572189434,2152
1777572189436,2139
1777572189438,2113
1777572189440,2082
1777572189442,2061
1777572189444,2059
1777572189486,2073
1777572189488,2091
1777572189490,2104
1777572189492,2131
1777572189494,2166
1777572189496,2194
1777572189498,2187
1777572189500,2171
1777572189502,2173
1777572189504,2189
1777572189486,2242
1777572189488,2322
1777572189490,2384
1777572189492,2469
1777572189494,2555
1777572189496,2659
1777572189498,2724
1777572189500,2758
1777572189502,2787
1777572189504,2818
1777572189486,2833
1777572189488,2830
1777572189490,2813
1777572189492,2804
1777572189494,2777
1777572189496,2717
1777572189498,2641
1777572189500,2545
1777572189502,2445
1777572189504,2358
1777572189518,2290
1777572189520,2228
1777572189522,2157
1777572189524,2168
1777572189526,2149
1777572189528,2121
1777572189530,2071
1777572189532,2017
1777572189534,1978
1777572189536,1957
1777572189518,1961
1777572189520,1984
1777572189522,2010
1777572189524,2038
1777572189526,2057
1777572189528,2058
1777572189530,2054
1777572189532,2041
1777572189534,2027
1777572189536,2025
1777572189586,2045
1777572189588,2063
1777572189590,2093
1777572189592,2122
1777572189594,2121
1777572189596,2121
1777572189598,2132
1777572189600,2106
1777572189602,2089
1777572189604,2082
1777572189586,2100
1777572189588,2131
1777572189590,2159
1777572189592,2179
1777572189594,2187
1777572189596,2189
1777572189598,2175
1777572189600,2163
1777572189602,2166
1777572189604,2175
1777572189615,2187
1777572189617,2207
1777572189619,2222
1777572189621,2250
1777572189623,2283
1777572189625,2287
1777572189627,2269
1777572189629,2233
1777572189631,2258
1777572189633,2254
1777572189615,2267
1777572189617,2273
1777572189619,2266
1777572189621,2266
1777572189623,2282
1777572189625,2283
1777572189627,2277
1777572189629,2264
1777572189631,2247
1777572189633,2235
1777572189651,2242
1777572189653,2273
1777572189655,2299
1777572189657,2323
1777572189659,2332
1777572189661,2332
1777572189663,2314
1777572189665,2305
1777572189667,2298
1777572189669,2291
1777572189651,2338
1777572189653,2401
1777572189655,2418
1777572189657,2428
1777572189659,2416
1777572189661,2407
1777572189663,2392
1777572189665,2374
1777572189667,2362
1777572189669,2364
1777572189651,2386
1777572189653,2417
1777572189655,2447
1777572189657,2472
1777572189659,2486
1777572189661,2487
1777572189663,2477
1777572189665,2459
1777572189667,2455
1777572189669,2471
1777572189710,2469
1777572189712,2472
1777572189714,2458
1777572189716,2526
1777572189718,2577
1777572189720,2585
1777572189722,2556
1777572189724,2517
1777572189726,2494
1777572189728,2488
1777572189710,2495
1777572189712,2513
1777572189714,2528
1777572189716,2539
1777572189718,2539
1777572189720,2534
1777572189722,2509
1777572189724,2475
1777572189726,2441
1777572189728,2428
1777572189741,2445
1777572189743,2474
1777572189745,2509
1777572189747,2526
1777572189749,2512
1777572189751,2502
1777572189753,2490
1777572189755,2451
1777572189757,2423
1777572189759,2393
1777572189741,2385
1777572189743,2387
1777572189745,2404
1777572189747,2412
1777572189749,2418
1777572189751,2393
1777572189753,2354
1777572189755,2325
1777572189757,2302
1777572189759,2277
1777572189806,2277
1777572189808,2288
1777572189810,2300
1777572189812,2296
1777572189814,2282
1777572189816,2270
1777572189818,2254
1777572189820,2230
1777572189822,2258
1777572189824,2236
1777572189806,2217
1777572189808,2200
1777572189810,2185
1777572189812,2187
1777572189814,2196
1777572189816,2195
1777572189818,2169
1777572189820,2126
1777572189822,2101
1777572189824,2118
1777572189838,2154
1777572189840,2177
1777572189842,2189
1777572189844,2200
1777572189846,2203
1777572189848,2187
1777572189850,2163
1777572189852,2142
1777572189854,2140
1777572189856,2146
1777572189838,2174
1777572189840,2223
1777572189842,2245
1777572189844,2262
1777572189846,2267
1777572189848,2264
1777572189850,2253
1777572189852,2240
1777572189854,2217
1777572189856,2194
1777572189838,2204
1777572189840,2233
1777572189842,2284
1777572189844,2324
1777572189846,2338
1777572189848,2338
1777572189850,2322
1777572189852,2291
1777572189854,2251
1777572189856,2241
1777572189876,2256
1777572189878,2286
1777572189880,2275
1777572189882,2322
1777572189884,2329
1777572189886,2303
1777572189888,2275
1777572189890,2251
1777572189892,2237
1777572189894,2237
1777572189876,2245
1777572189878,2263
1777572189880,2279
1777572189882,2279
1777572189884,2277
1777572189886,2296
1777572189888,2298
1777572189890,2285
1777572189892,2274
1777572189894,2267
1777572189935,2270
1777572189937,2293
1777572189939,2330
1777572189941,2359
1777572189943,2349
1777572189945,2339
1777572189947,2342
1777572189949,2323
1777572189951,2311
1777572189953,2311
1777572189935,2327
1777572189937,2362
1777572189939,2394
1777572189941,2412
1777572189943,2417
1777572189945,2408
1777572189947,2383
1777572189949,2349
1777572189951,2332
1777572189953,2335
1777572189966,2346
1777572189968,2369
1777572189970,2409
1777572189972,2440
1777572189974,2446
1777572189976,2418
1777572189978,2398
1777572189980,2365
1777572189982,2385
1777572189984,2373
1777572189966,2376
1777572189968,2396
1777572189970,2406
1777572189972,2411
1777572189974,2415
1777572189976,2411
1777572189978,2380
1777572189980,2341
1777572189982,2314
1777572189984,2312
1777572190030,2313
1777572190032,2336
1777572190034,2365
1777572190036,2391
1777572190038,2405
1777572190040,2396
1777572190042,2380
1777572190044,2358
1777572190046,2344
1777572190048,2350
1777572190030,2378
1777572190032,2427
1777572190034,2447
1777572190036,2455
1777572190038,2470
1777572190040,2475
1777572190042,2466
1777572190044,2444
1777572190046,2425
1777572190048,2424
1777572190030,2440
1777572190032,2469
1777572190034,2498
1777572190036,2506
1777572190038,2509
1777572190040,2486
1777572190042,2465
1777572190044,2432
1777572190046,2404
1777572190048,2393
1777572190062,2413
1777572190064,2447
1777572190066,2446
1777572190068,2495
1777572190070,2499
1777572190072,2480
1777572190074,2444
1777572190076,2405
1777572190078,2371
1777572190080,2362
1777572190101,2369
1777572190103,2378
1777572190105,2381
1777572190107,2374
1777572190109,2372
1777572190111,2365
1777572190113,2374
1777572190115,2377
1777572190117,2374
1777572190119,2370
1777572190101,2385
1777572190103,2416
1777572190105,2437
1777572190107,2447
1777572190109,2455
1777572190111,2446
1777572190113,2427
1777572190115,2415
1777572190117,2417
1777572190119,2430
1777572190101,2454
1777572190103,2480
1777572190105,2478
1777572190107,2475
1777572190109,2494
1777572190111,2514
1777572190113,2514
1777572190115,2489
1777572190117,2465
1777572190119,2462
1777572190160,2477
1777572190162,2499
1777572190164,2517
1777572190166,2532
1777572190168,2525
1777572190170,2512
1777572190172,2495
1777572190174,2448
1777572190176,2459
1777572190178,2459
1777572190160,2454
1777572190162,2439
1777572190164,2434
1777572190166,2442
1777572190168,2432
1777572190170,2422
1777572190172,2401
1777572190174,2382
1777572190176,2381
1777572190178,2398
1777572190192,2422
1777572190194,2451
1777572190196,2476
1777572190198,2500
1777572190200,2510
1777572190202,2509
1777572190204,2497
1777572190206,2474
1777572190208,2446
1777572190210,2436
1777572190192,2451
1777572190194,2495
1777572190196,2504
1777572190198,2498
1777572190200,2490
1777572190202,2481
1777572190204,2464
1777572190206,2440
1777572190208,2418
1777572190210,2418
1777572190192,2450
1777572190194,2484
1777572190196,2519
1777572190198,2549
1777572190200,2561
1777572190202,2548
1777572190204,2532
1777572190206,2517
1777572190208,2503
1777572190210,2496
1777572190256,2509
1777572190258,2541
1777572190260,2550
1777572190262,2613
1777572190264,2623
1777572190266,2593
1777572190268,2547
1777572190270,2506
1777572190272,2477
1777572190274,2461
1777572190288,2469
1777572190290,2488
1777572190292,2517
1777572190294,2521
1777572190296,2527
1777572190298,2523
1777572190300,2502
1777572190302,2495
1777572190304,2514
1777572190306,2531
1777572190289,2545
1777572190291,2559
1777572190293,2579
1777572190295,2584
1777572190297,2554
1777572190299,2542
1777572190301,2517
1777572190303,2493
1777572190305,2474
1777572190307,2472
1777572190289,2475
1777572190291,2506
1777572190293,2537
1777572190295,2560
1777572190297,2578
1777572190299,2580
1777572190301,2549
1777572190303,2513
1777572190305,2503
1777572190307,2514
1777572190326,2539
1777572190328,2569
1777572190330,2596
1777572190332,2605
1777572190334,2602
1777572190336,2584
1777572190338,2555
1777572190340,2495
1777572190342,2502
1777572190344,2496
1777572190326,2505
1777572190328,2518
1777572190330,2526
1777572190332,2511
1777572190334,2500
1777572190336,2488
1777572190338,2463
1777572190340,2441
1777572190342,2436
1777572190344,2438
1777572190385,2449
1777572190387,2478
1777572190389,2519
1777572190391,2549
1777572190393,2559
1777572190395,2554
1777572190397,2526
1777572190399,2496
1777572190401,2474
1777572190403,2468
1777572190385,2493
1777572190387,2562
1777572190389,2604
1777572190391,2637
1777572190393,2651
1777572190395,2664
1777572190397,2654
1777572190399,2650
1777572190401,2663
1777572190403,2699
1777572190417,2770
1777572190419,2861
1777572190421,2972
1777572190423,3078
1777572190425,3169
1777572190427,3222
1777572190429,3286
1777572190431,3339
1777572190433,3344
1777572190435,3324
1777572190417,3277
1777572190419,3246
1777572190421,3207
1777572190423,3195
1777572190425,3120
1777572190427,3013
1777572190429,2896
1777572190431,2800
1777572190433,2702
1777572190435,2610
1777572190464,2532
1777572190466,2489
1777572190468,2462
1777572190470,2452
1777572190472,2448
1777572190474,2439
1777572190476,2417
1777572190478,2405
1777572190480,2419
1777572190482,2442
1777572190464,2466
1777572190466,2499
1777572190468,2520
1777572190470,2524
1777572190472,2520
1777572190474,2534
1777572190476,2545
1777572190478,2530
1777572190480,2515
1777572190482,2501
1777572190464,2499
1777572190466,2511
1777572190468,2527
1777572190470,2540
1777572190472,2541
1777572190474,2534
1777572190476,2521
1777572190478,2514
1777572190480,2525
1777572190482,2547
1777572190508,2566
1777572190510,2589
1777572190512,2611
1777572190514,2619
1777572190516,2614
1777572190518,2593
1777572190520,2575
1777572190522,2536
1777572190524,2568
1777572190526,2583
1777572190508,2587
1777572190510,2598
1777572190512,2600
1777572190514,2597
1777572190516,2579
1777572190518,2549
1777572190520,2537
1777572190522,2535
1777572190524,2527
1777572190526,2525
1777572190508,2539
1777572190510,2556
1777572190512,2588
1777572190514,2612
1777572190516,2613
1777572190518,2603
1777572190520,2581
1777572190522,2555
1777572190524,2545
1777572190526,2556
1777572190561,2581
1777572190563,2645
1777572190565,2663
1777572190567,2645
1777572190569,2604
1777572190571,2588
1777572190573,2565
1777572190575,2528
1777572190577,2506
1777572190579,2514
1777572190605,2539
1777572190607,2572
1777572190609,2598
1777572190611,2603
1777572190613,2601
1777572190615,2595
1777572190617,2597
1777572190619,2603
1777572190621,2616
1777572190623,2634
1777572190605,2648
1777572190607,2672
1777572190609,2704
1777572190611,2754
1777572190613,2760
1777572190615,2747
1777572190617,2726
1777572190619,2706
1777572190621,2684
1777572190623,2692
1777572190605,2737
1777572190607,2788
1777572190609,2821
1777572190611,2848
1777572190613,2858
1777572190615,2847
1777572190617,2821
1777572190619,2802
1777572190621,2779
1777572190623,2771
1777572190657,2774
1777572190659,2786
1777572190661,2800
1777572190663,2812
1777572190665,2809
1777572190667,2792
1777572190669,2797
1777572190671,2755
1777572190673,2710
1777572190675,2680
1777572190657,2666
1777572190659,2654
1777572190661,2653
1777572190663,2646
1777572190665,2624
1777572190667,2595
1777572190669,2554
1777572190671,2526
1777572190673,2498
1777572190675,2484
1777572190701,2504
1777572190703,2523
1777572190705,2533
1777572190707,2542
1777572190709,2530
1777572190711,2505
1777572190713,2459
1777572190715,2398
1777572190717,2407
1777572190719,2392
1777572190701,2385
1777572190703,2392
1777572190705,2404
1777572190707,2411
1777572190709,2399
1777572190711,2367
1777572190713,2331
1777572190715,2311
1777572190717,2299
1777572190719,2299
1777572190733,2319
1777572190735,2343
1777572190737,2377
1777572190739,2395
1777572190741,2395
1777572190743,2387
1777572190745,2357
1777572190747,2322
1777572190749,2305
1777572190751,2311
1777572190733,2340
1777572190735,2395
1777572190737,2408
1777572190739,2398
1777572190741,2371
1777572190743,2347
1777572190745,2321
1777572190747,2292
1777572190749,2273
1777572190751,2286
1777572190776,2320
1777572190778,2348
1777572190780,2368
1777572190782,2391
1777572190784,2420
1777572190786,2401
1777572190788,2393
1777572190790,2384
1777572190792,2360
1777572190794,2346
1777572190776,2346
1777572190778,2377
1777572190780,2383
1777572190782,2442
1777572190784,2431
1777572190786,2407
1777572190788,2386
1777572190790,2359
1777572190792,2348
1777572190794,2355
1777572190777,2372
1777572190779,2395
1777572190781,2423
1777572190783,2442
1777572190785,2438
1777572190787,2414
1777572190789,2383
1777572190791,2372
1777572190793,2355
1777572190795,2379
1777572190830,2430
1777572190832,2469
1777572190834,2487
1777572190836,2484
1777572190838,2458
1777572190840,2426
1777572190842,2428
1777572190844,2384
1777572190846,2368
1777572190848,2376
1777572190830,2369
1777572190832,2363
1777572190834,2369
1777572190836,2386
1777572190838,2392
1777572190840,2383
1777572190842,2376
1777572190844,2365
1777572190846,2364
1777572190848,2368
1777572190866,2396
1777572190868,2420
1777572190870,2450
1777572190872,2460
1777572190874,2443
1777572190876,2433
1777572190878,2404
1777572190880,2348
1777572190882,2379
1777572190884,2388
1777572190867,2405
1777572190869,2438
1777572190871,2470
1777572190873,2469
1777572190875,2461
1777572190877,2451
1777572190879,2423
1777572190881,2400
1777572190883,2394
1777572190885,2396
1777572190925,2411
1777572190927,2432
1777572190929,2447
1777572190931,2454
1777572190933,2443
1777572190935,2418
1777572190937,2393
1777572190939,2380
1777572190941,2395
1777572190943,2414
1777572190925,2432
1777572190927,2456
1777572190929,2458
1777572190931,2454
1777572190933,2439
1777572190935,2421
1777572190937,2378
1777572190939,2345
1777572190941,2328
1777572190943,2334
1777572190958,2356
1777572190960,2382
1777572190962,2399
1777572190964,2417
1777572190966,2435
1777572190968,2443
1777572190970,2425
1777572190972,2390
1777572190974,2370
1777572190976,2379
1777572190958,2394
1777572190960,2418
1777572190962,2413
1777572190964,2474
1777572190966,2474
1777572190968,2434
1777572190970,2395
1777572190972,2354
1777572190974,2319
1777572190976,2299
1777572190958,2322
1777572190960,2370
1777572190962,2422
1777572190964,2454
1777572190966,2448
1777572190968,2419
1777572190970,2380
1777572190972,2357
1777572190974,2345
1777572190976,2366
1777572191002,2403
1777572191004,2438
1777572191006,2464
1777572191008,2470
1777572191010,2445
1777572191012,2411
1777572191014,2414
1777572191016,2387
1777572191018,2365
1777572191020,2343
1777572191002,2326
1777572191004,2324
1777572191006,2331
1777572191008,2349
1777572191010,2368
1777572191012,2373
1777572191014,2355
1777572191016,2344
1777572191018,2339
1777572191020,2345
1777572191092,2348
1777572191094,2369
1777572191096,2408
1777572191098,2425
1777572191100,2427
1777572191102,2409
1777572191104,2372
1777572191106,2329
1777572191108,2371
1777572191110,2381
1777572191093,2400
1777572191095,2418
1777572191097,2427
1777572191099,2428
1777572191101,2418
1777572191103,2390
1777572191105,2347
1777572191107,2326
1777572191109,2332
1777572191111,2361
1777572191093,2397
1777572191095,2424
1777572191097,2430
1777572191099,2462
1777572191101,2479
1777572191103,2471
1777572191105,2451
1777572191107,2438
1777572191109,2420
1777572191111,2401
1777572191093,2427
1777572191095,2455
1777572191097,2475
1777572191099,2475
1777572191101,2461
1777572191103,2440
1777572191105,2419
1777572191107,2399
1777572191109,2389
1777572191111,2414
1777572191146,2451
1777572191148,2480
1777572191150,2506
1777572191152,2520
1777572191154,2506
1777572191156,2475
1777572191158,2440
1777572191160,2417
1777572191162,2412
1777572191164,2435
1777572191146,2453
1777572191148,2470
1777572191150,2462
1777572191152,2516
1777572191154,2541
1777572191156,2507
1777572191158,2440
1777572191160,2377
1777572191162,2328
1777572191164,2293
1777572191146,2294
1777572191148,2308
1777572191150,2326
1777572191152,2327
1777572191154,2319
1777572191156,2311
1777572191158,2292
1777572191160,2275
1777572191162,2267
1777572191164,2276
1777572191182,2293
1777572191184,2304
1777572191186,2326
1777572191188,2355
1777572191190,2373
1777572191192,2357
1777572191194,2367
1777572191196,2348
1777572191198,2334
1777572191200,2327
1777572191183,2334
1777572191185,2358
1777572191187,2376
1777572191189,2389
1777572191191,2390
1777572191193,2383
1777572191195,2365
1777572191197,2340
1777572191199,2324
1777572191201,2314
1777572191242,2327
1777572191244,2358
1777572191246,2376
1777572191248,2375
1777572191250,2369
1777572191252,2356
1777572191254,2344
1777572191256,2326
1777572191258,2387
1777572191260,2402
1777572191242,2416
1777572191244,2428
1777572191246,2434
1777572191248,2448
1777572191250,2439
1777572191252,2412
1777572191254,2374
1777572191256,2350
1777572191258,2336
1777572191260,2321
1777572191274,2325
1777572191276,2335
1777572191278,2355
1777572191280,2378
1777572191282,2377
1777572191284,2355
1777572191286,2325
1777572191288,2312
1777572191290,2309
1777572191292,2318
1777572191274,2350
1777572191276,2409
1777572191278,2434
1777572191280,2444
1777572191282,2428
1777572191284,2399
1777572191286,2372
1777572191288,2347
1777572191290,2332
1777572191292,2330
1777572191316,2335
1777572191318,2342
1777572191320,2346
1777572191322,2357
1777572191324,2349
1777572191326,2324
1777572191328,2296
1777572191330,2280
1777572191332,2285
1777572191334,2297
1777572191316,2315
1777572191318,2331
1777572191320,2331
1777572191322,2392
1777572191324,2391
1777572191326,2378
1777572191328,2334
1777572191330,2300
1777572191332,2282
1777572191334,2278
1777572191317,2288
1777572191319,2331
1777572191321,2367
1777572191323,2370
1777572191325,2355
1777572191327,2333
1777572191329,2313
1777572191331,2309
1777572191333,2306
1777572191335,2310
1777572191371,2345
1777572191373,2395
1777572191375,2438
1777572191377,2476
1777572191379,2517
1777572191381,2549
1777572191383,2634
1777572191385,2678
1777572191387,2735
1777572191389,2799
1777572191371,2872
1777572191373,2960
1777572191375,3014
1777572191377,3020
1777572191379,2997
1777572191381,2945
1777572191383,2863
1777572191385,2768
1777572191387,2679
1777572191389,2607
1777572191419,2535
1777572191421,2470
1777572191423,2407
1777572191425,2332
1777572191427,2238
1777572191429,2160
1777572191431,2098
1777572191433,2038
1777572191435,2069
1777572191437,2095
1777572191419,2120
1777572191421,2136
1777572191423,2141
1777572191425,2155
1777572191427,2157
1777572191429,2146
1777572191431,2132
1777572191433,2119
1777572191435,2121
1777572191437,2142
1777572191466,2172
1777572191468,2198
1777572191470,2212
1777572191472,2214
1777572191474,2207
1777572191476,2204
1777572191478,2203
1777572191480,2203
1777572191482,2195
1777572191484,2182
1777572191466,2197
1777572191468,2234
1777572191470,2242
1777572191472,2244
1777572191474,2227
1777572191476,2206
1777572191478,2173
1777572191480,2129
1777572191482,2109
1777572191484,2125
1777572191517,2158
1777572191519,2197
1777572191521,2230
1777572191523,2222
1777572191525,2191
1777572191527,2166
1777572191529,2150
1777572191531,2140
1777572191533,2143
1777572191535,2170
1777572191517,2186
1777572191519,2200
1777572191521,2204
1777572191523,2248
1777572191525,2246
1777572191527,2242
1777572191529,2218
1777572191531,2183
1777572191533,2169
1777572191535,2190
1777572191517,2214
1777572191519,2240
1777572191521,2253
1777572191523,2259
1777572191525,2255
1777572191527,2237
1777572191529,2201
1777572191531,2186
1777572191533,2188
1777572191535,2206
1777572191552,2238
1777572191554,2267
1777572191556,2284
1777572191558,2289
1777572191560,2272
1777572191562,2247
1777572191564,2249
1777572191566,2211
1777572191568,2179
1777572191570,2164
1777572191552,2175
1777572191554,2196
1777572191556,2207
1777572191558,2217
1777572191560,2210
1777572191562,2197
1777572191564,2191
1777572191566,2189
1777572191568,2194
1777572191570,2207
1777572191595,2227
1777572191597,2254
1777572191599,2283
1777572191601,2309
1777572191603,2304
1777572191605,2279
1777572191607,2252
1777572191609,2211
1777572191611,2249
1777572191613,2279
1777572191595,2312
1777572191597,2344
1777572191599,2354
1777572191601,2350
1777572191603,2327
1777572191605,2305
1777572191607,2281
1777572191609,2264
1777572191611,2260
1777572191613,2267
1777572191631,2277
1777572191633,2270
1777572191635,2269
1777572191637,2265
1777572191639,2250
1777572191641,2220
1777572191643,2165
1777572191645,2104
1777572191647,2074
1777572191649,2076
1777572191631,2081
1777572191633,2113
1777572191635,2114
1777572191637,2095
1777572191639,2048
1777572191641,1994
1777572191643,1951
1777572191645,1910
1777572191647,1879
1777572191649,1875
1777572191692,1876
1777572191694,1879
1777572191696,1882
1777572191698,1875
1777572191700,1861
1777572191702,1829
1777572191704,1788
1777572191706,1761
1777572191708,1766
1777572191710,1777
1777572191692,1779
1777572191694,1781
1777572191696,1759
1777572191698,1781
1777572191700,1760
1777572191702,1724
1777572191704,1681
1777572191706,1645
1777572191708,1622
1777572191710,1614
1777572191692,1620
1777572191694,1612
1777572191696,1633
1777572191698,1665
1777572191700,1667
1777572191702,1644
1777572191704,1600
1777572191706,1569
1777572191708,1548
1777572191710,1557
1777572191737,1577
1777572191739,1597
1777572191741,1610
1777572191743,1604
1777572191745,1575
1777572191747,1543
1777572191749,1531
1777572191751,1489
1777572191753,1468
1777572191755,1453
1777572191737,1438
1777572191739,1434
1777572191741,1437
1777572191743,1448
1777572191745,1432
1777572191747,1398
1777572191749,1375
1777572191751,1359
1777572191753,1342
1777572191755,1338
1777572191768,1348
1777572191770,1349
1777572191772,1336
1777572191774,1341
1777572191776,1355
1777572191778,1346
1777572191780,1325
1777572191782,1278
1777572191784,1305
1777572191786,1319
1777572191768,1332
1777572191770,1349
1777572191772,1356
1777572191774,1358
1777572191776,1335
1777572191778,1313
1777572191780,1285
1777572191782,1257
1777572191784,1255
1777572191786,1260
1777572191817,1271
1777572191819,1301
1777572191821,1328
1777572191823,1337
1777572191825,1327
1777572191827,1303
1777572191829,1271
1777572191831,1240
1777572191833,1215
1777572191835,1212
1777572191817,1224
1777572191819,1257
1777572191821,1273
1777572191823,1267
1777572191825,1235
1777572191827,1201
1777572191829,1170
1777572191831,1148
1777572191833,1132
1777572191835,1139
1777572191866,1153
1777572191868,1175
1777572191870,1191
1777572191872,1191
1777572191874,1172
1777572191876,1150
1777572191878,1121
1777572191880,1090
1777572191882,1064
1777572191884,1062
1777572191866,1083
1777572191868,1112
1777572191870,1116
1777572191872,1165
1777572191874,1156
1777572191876,1122
1777572191878,1083
1777572191880,1046
1777572191882,1017
1777572191884,1002
1777572191866,1012
1777572191868,1057
1777572191870,1094
1777572191872,1103
1777572191874,1084
1777572191876,1034
1777572191878,1010
1777572191880,1002
1777572191882,999
1777572191884,1009
1777572191916,1028
1777572191918,1054
1777572191920,1065
1777572191922,1070
1777572191924,1059
1777572191926,1024
1777572191928,1012
1777572191930,969
1777572191932,945
1777572191934,922
1777572191916,894
1777572191918,890
1777572191920,908
1777572191922,927
1777572191924,933
1777572191926,922
1777572191928,900
1777572191930,879
1777572191932,860
1777572191934,860
1777572191958,882
1777572191960,898
1777572191962,910
1777572191964,899
1777572191966,890
1777572191968,871
1777572191970,849
1777572191972,807
1777572191974,830
1777572191976,827
1777572191958,816
1777572191960,807
1777572191962,840
1777572191964,875
1777572191966,899
1777572191968,885
1777572191970,865
1777572191972,850
1777572191974,857
1777572191976,872
1777572191991,885
1777572191993,908
1777572191995,923
1777572191997,921
1777572191999,900
1777572192001,872
1777572192003,840
1777572192005,821
1777572192007,816
1777572192009,834
1777572191991,864
1777572191993,902
1777572191995,910
1777572191997,902
1777572191999,903
1777572192001,877
1777572192003,843
1777572192005,802
1777572192007,780
1777572192009,787
1777572191992,810
1777572191994,837
1777572191996,848
1777572191998,863
1777572192000,876
1777572192002,871
1777572192004,847
1777572192006,834
1777572192008,839
1777572192010,864
1777572192039,884
1777572192041,914
1777572192043,908
1777572192045,953
1777572192047,948
1777572192049,918
1777572192051,878
1777572192053,841
1777572192055,807
1777572192057,785
1777572192039,792
1777572192041,815
1777572192043,838
1777572192045,868
1777572192047,867
1777572192049,847
1777572192051,836
1777572192053,822
1777572192055,818
1777572192057,830
1777572192081,850
1777572192083,875
1777572192085,882
1777572192087,880
1777572192089,861
1777572192091,870
1777572192093,893
1777572192095,878
1777572192097,859
1777572192099,862
1777572192081,876
1777572192083,894
1777572192085,900
1777572192087,890
1777572192089,860
1777572192091,828
1777572192093,805
1777572192095,788
1777572192097,782
1777572192099,791
1777572192135,811
1777572192137,851
1777572192139,883
1777572192141,892
1777572192143,891
1777572192145,867
1777572192147,838
1777572192149,788
1777572192151,810
1777572192153,803
1777572192135,793
1777572192137,790
1777572192139,775
1777572192141,764
1777572192143,750
1777572192145,718
1777572192147,684
1777572192149,669
1777572192151,667
1777572192153,670
1777572192183,691
1777572192185,719
1777572192187,746
1777572192189,760
1777572192191,763
1777572192193,745
1777572192195,718
1777572192197,688
1777572192199,657
1777572192201,642
1777572192183,654
1777572192185,683
1777572192187,671
1777572192189,645
1777572192191,621
1777572192193,585
1777572192195,548
1777572192197,518
1777572192199,503
1777572192201,520
1777572192183,551
1777572192185,567
1777572192187,585
1777572192189,602
1777572192191,601
1777572192193,582
1777572192195,550
1777572192197,523
1777572192199,508
1777572192201,515
1777572192216,521
1777572192218,531
1777572192220,517
1777572192222,563
1777572192224,554
1777572192226,523
1777572192228,472
1777572192230,424
1777572192232,410
1777572192234,419
1777572192216,432
1777572192218,459
1777572192220,487
1777572192222,516
1777572192224,537
1777572192226,542
1777572192228,556
1777572192230,579
1777572192232,614
1777572192234,692
1777572192266,812
1777572192268,921
1777572192270,1020
1777572192272,1107
1777572192274,1151
1777572192276,1159
1777572192278,1166
1777572192280,1121
1777572192282,1077
1777572192284,1040
1777572192266,1006
1777572192268,965
1777572192270,904
1777572192272,826
1777572192274,729
1777572192276,631
1777572192278,526
1777572192280,447
1777572192282,405
1777572192284,395
1777572192317,405
1777572192319,419
1777572192321,418
1777572192323,398
1777572192325,367
1777572192327,332
1777572192329,290
1777572192331,238
1777572192333,272
1777572192335,276
1777572192317,289
1777572192319,309
1777572192321,341
1777572192323,355
1777572192325,351
1777572192327,327
1777572192329,300
1777572192331,296
1777572192333,302
1777572192335,315
1777572192366,338
1777572192368,360
1777572192370,379
1777572192372,391
1777572192374,379
1777572192376,365
1777572192378,329
1777572192380,312
1777572192382,319
1777572192384,317
1777572192366,338
1777572192368,391
1777572192370,408
1777572192372,417
1777572192374,408
1777572192376,381
1777572192378,347
1777572192380,324
1777572192382,317
1777572192384,315
1777572192366,321
1777572192368,342
1777572192370,363
1777572192372,368
1777572192374,372
1777572192376,374
1777572192378,365
1777572192380,350
1777572192382,353
1777572192384,371
1777572192397,383
1777572192399,405
1777572192401,404
1777572192403,458
1777572192405,467
1777572192407,442
1777572192409,399
1777572192411,376
1777572192413,366
1777572192415,378
1777572192397,395
1777572192399,423
1777572192401,449
1777572192403,460
1777572192405,452
1777572192407,437
1777572192409,418
1777572192411,407
1777572192413,407
1777572192415,422
1777572192453,481
1777572192455,519
1777572192457,549
1777572192459,572
1777572192461,565
1777572192463,553
1777572192465,555
1777572192467,556
1777572192469,564
1777572192471,577
1777572192453,605
1777572192455,635
1777572192457,663
1777572192459,666
1777572192461,665
1777572192463,656
1777572192465,648
1777572192467,669
1777572192469,702
1777572192471,726
1777572192486,746
1777572192488,774
1777572192490,796
1777572192492,810
1777572192494,792
1777572192496,758
1777572192498,736
1777572192500,709
1777572192502,755
1777572192504,769
1777572192486,794
1777572192488,823
1777572192490,832
1777572192492,833
1777572192494,821
1777572192496,790
1777572192498,750
1777572192500,730
1777572192502,739
1777572192504,769
1777572192531,809
1777572192533,833
1777572192535,837
1777572192537,821
1777572192539,790
1777572192541,757
1777572192543,706
1777572192545,682
1777572192547,696
1777572192549,720
1777572192531,745
1777572192533,787
1777572192535,789
1777572192537,790
1777572192539,785
1777572192541,764
1777572192543,737
1777572192545,711
1777572192547,698
1777572192549,706
1777572192532,730
1777572192534,748
1777572192536,755
1777572192538,758
1777572192540,747
1777572192542,735
1777572192544,727
1777572192546,723
1777572192548,733
1777572192550,755
1777572192581,777
1777572192583,789
1777572192585,777
1777572192587,830
1777572192589,842
1777572192591,808
1777572192593,777
1777572192595,740
1777572192597,728
1777572192599,745
1777572192581,783
1777572192583,837
1777572192585,879
1777572192587,890
1777572192589,892
1777572192591,884
1777572192593,859
1777572192595,850
1777572192597,867
1777572192599,899
1777572192621,936
1777572192623,965
1777572192625,986
1777572192627,999
1777572192629,996
1777572192631,993
1777572192633,1012
1777572192635,1018
1777572192637,1024
1777572192639,1035
1777572192621,1053
1777572192623,1096
1777572192625,1138
1777572192627,1156
1777572192629,1161
1777572192631,1138
1777572192633,1114
1777572192635,1114
1777572192637,1140
1777572192639,1169
1777572192677,1207
1777572192679,1245
1777572192681,1269
1777572192683,1280
1777572192685,1286
1777572192687,1291
1777572192689,1300
1777572192691,1287
1777572192693,1330
1777572192695,1349
1777572192677,1378
1777572192679,1418
1777572192681,1426
1777572192683,1426
1777572192685,1417
1777572192687,1396
1777572192689,1376
1777572192691,1373
1777572192693,1389
1777572192695,1417
1777572192711,1445
1777572192713,1478
1777572192715,1513
1777572192717,1525
1777572192719,1525
1777572192721,1521
1777572192723,1502
1777572192725,1502
1777572192727,1537
1777572192729,1579
1777572192711,1624
1777572192713,1679
1777572192715,1695
1777572192717,1705
1777572192719,1704
1777572192721,1691
1777572192723,1670
1777572192725,1650
1777572192727,1647
1777572192729,1671
1777572192712,1707
1777572192714,1751
1777572192716,1772
1777572192718,1785
1777572192720,1782
1777572192722,1787
1777572192724,1786
1777572192726,1783
1777572192728,1787
1777572192730,1810
1777572192756,1834
1777572192758,1866
1777572192760,1872
1777572192762,1918
1777572192764,1920
1777572192766,1890
1777572192768,1842
1777572192770,1808
1777572192772,1812
1777572192774,1846
1777572192757,1885
1777572192759,1919
1777572192761,1938
1777572192763,1942
1777572192765,1941
1777572192767,1943
1777572192769,1932
1777572192771,1924
1777572192773,1929
1777572192775,1955
1777572192805,1996
1777572192807,2042
1777572192809,2081
1777572192811,2100
1777572192813,2085
1777572192815,2088
1777572192817,2113
1777572192819,2120
1777572192821,2129
1777572192823,2153
1777572192805,2181
1777572192807,2199
1777572192809,2210
1777572192811,2207
1777572192813,2206
1777572192815,2202
1777572192817,2199
1777572192819,2205
1777572192821,2229
1777572192823,2265
1777572192846,2304
1777572192848,2357
1777572192850,2410
1777572192852,2431
1777572192854,2423
1777572192856,2387
1777572192858,2352
1777572192860,2319
1777572192862,2365
1777572192864,2382
1777572192846,2415
1777572192848,2450
1777572192850,2460
1777572192852,2472
1777572192854,2467
1777572192856,2454
1777572192858,2442
1777572192860,2441
1777572192862,2460
1777572192864,2501
1777572192901,2544
1777572192903,2585
1777572192905,2623
1777572192907,2644
1777572192909,2649
1777572192911,2636
1777572192913,2615
1777572192915,2608
1777572192917,2631
1777572192919,2672
1777572192901,2727
1777572192903,2792
1777572192905,2839
1777572192907,2859
1777572192909,2852
1777572192911,2821
1777572192913,2790
1777572192915,2778
1777572192917,2789
1777572192919,2817
1777572192901,2843
1777572192903,2862
1777572192905,2876
1777572192907,2880
1777572192909,2885
1777572192911,2894
1777572192913,2892
1777572192915,2891
1777572192917,2896
1777572192919,2904
1777572192937,2922
1777572192939,2954
1777572192941,2950
1777572192943,2979
1777572192945,2977
1777572192947,2950
1777572192949,2912
1777572192951,2887
1777572192953,2887
1777572192955,2897
1777572192982,2927
1777572192984,2956
1777572192986,2969
1777572192988,2957
1777572192990,2950
1777572192992,2931
1777572192994,2911
1777572192996,2918
1777572192998,2942
1777572193000,2970
1777572192982,3002
1777572192984,3042
1777572192986,3065
1777572192988,3064
1777572192990,3046
1777572192992,3048
1777572192994,3038
1777572192996,3031
1777572192998,3036
1777572193000,3068
1777572192982,3115
1777572192984,3153
1777572192986,3174
1777572192988,3200
1777572192990,3205
1777572192992,3183
1777572192994,3155
1777572192996,3152
1777572192998,3166
1777572193000,3192
1777572193029,3239
1777572193031,3282
1777572193033,3311
1777572193035,3321
1777572193037,3314
1777572193039,3281
1777572193041,3250
1777572193043,3211
1777572193045,3235
1777572193047,3255
1777572193029,3287
1777572193031,3322
1777572193033,3350
1777572193035,3376
1777572193037,3380
1777572193039,3387
1777572193041,3401
1777572193043,3432
1777572193045,3485
1777572193047,3560
1777572193082,3668
1777572193084,3797
1777572193086,3940
1777572193088,4062
1777572193090,4095
1777572193092,4095
1777572193094,4095
1777572193096,4095
1777572193098,4095
1777572193100,4095
1777572193082,4095
1777572193084,4095
1777572193086,4095
1777572193088,4095
1777572193090,4094
1777572193092,3978
1777572193094,3807
1777572193096,3676
1777572193098,3574
1777572193100,3517
1777572193082,3491
1777572193084,3488
1777572193086,3499
1777572193088,3493
1777572193090,3471
1777572193092,3440
1777572193094,3431
1777572193096,3443
1777572193098,3464
1777572193100,3489
1777572193132,3535
1777572193134,3587
1777572193136,3605
1777572193138,3659
1777572193140,3656
1777572193142,3632
1777572193144,3594
1777572193146,3583
1777572193148,3598
1777572193150,3629
1777572193161,3673
1777572193163,3710
1777572193165,3732
1777572193167,3743
1777572193169,3746
1777572193171,3737
1777572193173,3722
1777572193175,3716
1777572193177,3734
1777572193179,3761
1777572193162,3797
1777572193164,3833
1777572193166,3855
1777572193168,3867
1777572193170,3861
1777572193172,3842
1777572193174,3817
1777572193176,3837
1777572193178,3861
1777572193180,3895
1777572193162,3950
1777572193164,3995
1777572193166,4021
1777572193168,4025
1777572193170,4015
1777572193172,3993
1777572193174,3970
1777572193176,3974
1777572193178,4009
1777572193180,4033
1777572193206,4051
1777572193208,4088
1777572193210,4095
1777572193212,4095
1777572193214,4090
1777572193216,4064
1777572193218,4058
1777572193220,4039
1777572193222,4079
1777572193224,4094
1777572193206,4095
1777572193208,4095
1777572193210,4095
1777572193212,4095
1777572193214,4093
1777572193216,4054
1777572193218,3988
1777572193220,3967
1777572193222,4009
1777572193224,4077
1777572193254,4095
1777572193256,4095
1777572193258,4095
1777572193260,4095
1777572193262,4095
1777572193264,4095
1777572193266,4095
1777572193268,4095
1777572193270,4095
1777572193272,4095
1777572193254,4095
1777572193256,4095
1777572193258,4095
1777572193260,4095
1777572193262,4095
1777572193264,4095
1777572193266,4095
1777572193268,4095
1777572193270,4095
1777572193272,4095
1777572193296,4095
1777572193298,4095
1777572193300,4095
1777572193302,4095
1777572193304,4095
1777572193306,4095
1777572193308,4095
1777572193310,4095
1777572193312,4095
1777572193314,4095
1777572193296,4095
1777572193298,4095
1777572193300,4095
1777572193302,4095
1777572193304,4095
1777572193306,4095
1777572193308,4095
1777572193310,4095
1777572193312,4095
1777572193314,4095
1777572193349,4095
1777572193351,4095
1777572193353,4095
1777572193355,4095
1777572193357,4095
1777572193359,4095
1777572193361,4068
1777572193363,4038
1777572193365,4056
1777572193367,4087
1777572193349,4094
1777572193351,4095
1777572193353,4095
1777572193355,4095
1777572193357,4076
1777572193359,4024
1777572193361,3980
1777572193363,3933
1777572193365,3914
1777572193367,3905
1777572193349,3921
1777572193351,3934
1777572193353,3929
1777572193355,3908
1777572193357,3862
1777572193359,3812
1777572193361,3769
1777572193363,3758
1777572193365,3779
1777572193367,3820
1777572193386,3838
1777572193388,3844
1777572193390,3863
1777572193392,3869
1777572193394,3844
1777572193396,3811
1777572193398,3785
1777572193400,3747
1777572193402,3778
1777572193404,3811
1777572193386,3843
1777572193388,3864
1777572193390,3872
1777572193392,3835
1777572193394,3797
1777572193396,3760
1777572193398,3731
1777572193400,3715
1777572193402,3725
1777572193404,3759
1777572193386,3807
1777572193388,3838
1777572193390,3848
1777572193392,3849
1777572193394,3824
1777572193396,3794
1777572193398,3760
1777572193400,3736
1777572193402,3732
1777572193404,3753
1777572193431,3780
1777572193433,3854
1777572193435,3880
1777572193437,3869
1777572193439,3831
1777572193441,3793
1777572193443,3739
1777572193445,3708
1777572193447,3706
1777572193449,3708
1777572193476,3748
1777572193478,3795
1777572193480,3821
1777572193482,3813
1777572193484,3786
1777572193486,3759
1777572193488,3740
1777572193490,3746
1777572193492,3766
1777572193494,3791
1777572193476,3825
1777572193478,3845
1777572193480,3839
1777572193482,3864
1777572193484,3847
1777572193486,3812
1777572193488,3783
1777572193490,3785
1777572193492,3785
1777572193494,3781
1777572193476,3807
1777572193478,3875
1777572193480,3935
1777572193482,3975
1777572193484,3968
1777572193486,3940
1777572193488,3907
1777572193490,3884
1777572193492,3898
1777572193494,3926
1777572193521,3963
1777572193523,3992
1777572193525,3992
1777572193527,3971
1777572193529,3929
1777572193531,3880
1777572193533,3858
1777572193535,3810
1777572193537,3783
1777572193539,3782
1777572193521,3808
1777572193523,3824
1777572193525,3831
1777572193527,3798
1777572193529,3760
1777572193531,3748
1777572193533,3726
1777572193535,3715
1777572193537,3723
1777572193539,3727
1777572193573,3740
1777572193575,3760
1777572193577,3778
1777572193579,3795
1777572193581,3778
1777572193583,3767
1777572193585,3773
1777572193587,3760
1777572193589,3783
1777572193591,3796
1777572193573,3811
1777572193575,3833
1777572193577,3838
1777572193579,3814
1777572193581,3779
1777572193583,3763
1777572193585,3755
1777572193587,3738
1777572193589,3743
1777572193591,3756
1777572193611,3792
1777572193613,3828
1777572193615,3834
1777572193617,3820
1777572193619,3815
1777572193621,3797
1777572193623,3754
1777572193625,3730
1777572193627,3744
1777572193629,3771
1777572193611,3798
1777572193613,3833
1777572193615,3842
1777572193617,3835
1777572193619,3794
1777572193621,3735
1777572193623,3695
1777572193625,3683
1777572193627,3695
1777572193629,3728
1777572193656,3776
1777572193658,3822
1777572193660,3826
1777572193662,3808
1777572193664,3755
1777572193666,3712
1777572193668,3692
1777572193670,3702
1777572193672,3730
1777572193674,3741
1777572193656,3756
1777572193658,3785
1777572193660,3798
1777572193662,3842
1777572193664,3811
1777572193666,3767
1777572193668,3731
1777572193670,3701
1777572193672,3690
1777572193674,3695
1777572193656,3726
1777572193658,3758
1777572193660,3780
1777572193662,3760
1777572193664,3716
1777572193666,3663
1777572193668,3631
1777572193670,3627
1777572193672,3637
1777572193674,3678
1777572193702,3721
1777572193704,3749
1777572193706,3766
1777572193708,3738
1777572193710,3697
1777572193712,3660
1777572193714,3677
1777572193716,3651
1777572193718,3634
1777572193720,3632
1777572193702,3641
1777572193704,3649
1777572193706,3642
1777572193708,3611
1777572193710,3574
1777572193712,3538
1777572193714,3508
1777572193716,3492
1777572193718,3492
1777572193720,3504
1777572193746,3520
1777572193748,3542
1777572193750,3556
1777572193752,3558
1777572193754,3541
1777572193756,3516
1777572193758,3497
1777572193760,3484
1777572193762,3549
1777572193764,3564
1777572193746,3584
1777572193748,3618
1777572193750,3623
1777572193752,3610
1777572193754,3581
1777572193756,3543
1777572193758,3509
1777572193760,3495
1777572193762,3498
1777572193764,3517
1777572193797,3539
1777572193799,3558
1777572193801,3556
1777572193803,3531
1777572193805,3492
1777572193807,3450
1777572193809,3421
1777572193811,3428
1777572193813,3433
1777572193815,3450
1777572193797,3488
1777572193799,3532
1777572193801,3543
1777572193803,3531
1777572193805,3497
1777572193807,3452
1777572193809,3417
1777572193811,3413
1777572193813,3413
1777572193815,3443
1777572193836,3471
1777572193838,3494
1777572193840,3513
1777572193842,3520
1777572193844,3502
1777572193846,3468
1777572193848,3434
1777572193850,3421
1777572193852,3428
1777572193854,3433
1777572193837,3420
1777572193839,3413
1777572193841,3406
1777572193843,3436
1777572193845,3426
1777572193847,3401
1777572193849,3385
1777572193851,3369
1777572193853,3368
1777572193855,3379
1777572193837,3395
1777572193839,3398
1777572193841,3402
1777572193843,3394
1777572193845,3363
1777572193847,3312
1777572193849,3267
1777572193851,3241
1777572193853,3245
1777572193855,3263
1777572193894,3286
1777572193896,3309
1777572193898,3325
1777572193900,3317
1777572193902,3273
1777572193904,3209
1777572193906,3196
1777572193908,3176
1777572193910,3180
1777572193912,3189
1777572193894,3188
1777572193896,3179
1777572193898,3154
1777572193900,3125
1777572193902,3087
1777572193904,3052
1777572193906,3023
1777572193908,3020
1777572193910,3029
1777572193912,3042
1777572193926,3062
1777572193928,3080
1777572193930,3084
1777572193932,3066
1777572193934,3030
1777572193936,3010
1777572193938,3005
1777572193940,2988
1777572193942,3034
1777572193944,3048
1777572193926,3056
1777572193928,3064
1777572193930,3059
1777572193932,3045
1777572193934,3012
1777572193936,2976
1777572193938,2950
1777572193940,2942
1777572193942,2949
1777572193944,2967
1777572193971,2983
1777572193973,2999
1777572193975,2999
1777572193977,2995
1777572193979,2976
1777572193981,2952
1777572193983,2939
1777572193985,2939
1777572193987,2940
1777572193989,2954
1777572193971,2976
1777572193973,3025
1777572193975,3054
1777572193977,3076
1777572193979,3088
1777572193981,3102
1777572193983,3139
1777572193985,3193
1777572193987,3285
1777572193989,3412
1777572194021,3553
1777572194023,3679
1777572194025,3786
1777572194027,3833
1777572194029,3812
1777572194031,3744
1777572194033,3675
1777572194035,3613
1777572194037,3535
1777572194039,3446
1777572194021,3346
1777572194023,3246
1777572194025,3104
1777572194027,3012
1777572194029,2881
1777572194031,2758
1777572194033,2653
1777572194035,2579
1777572194037,2537
1777572194039,2526
1777572194021,2522
1777572194023,2520
1777572194025,2531
1777572194027,2540
1777572194029,2536
1777572194031,2524
1777572194033,2522
1777572194035,2530
1777572194037,2544
1777572194039,2563
1777572194061,2593
1777572194063,2612
1777572194065,2606
1777572194067,2580
1777572194069,2553
1777572194071,2505
1777572194073,2504
1777572194075,2475
1777572194077,2468
1777572194079,2482
1777572194062,2492
1777572194064,2504
1777572194066,2497
1777572194068,2471
1777572194070,2429
1777572194072,2400
1777572194074,2380
1777572194076,2375
1777572194078,2388
1777572194080,2415
1777572194117,2438
1777572194119,2456
1777572194121,2462
1777572194123,2448
1777572194125,2421
1777572194127,2386
1777572194129,2365
1777572194131,2346
1777572194133,2407
1777572194135,2437
1777572194117,2454
1777572194119,2461
1777572194121,2454
1777572194123,2434
1777572194125,2404
1777572194127,2374
1777572194129,2350
1777572194131,2338
1777572194133,2335
1777572194135,2347
1777572194151,2360
1777572194153,2376
1777572194155,2395
1777572194157,2389
1777572194159,2360
1777572194161,2324
1777572194163,2292
1777572194165,2282
1777572194167,2282
1777572194169,2287
1777572194151,2298
1777572194153,2334
1777572194155,2338
1777572194157,2320
1777572194159,2287
1777572194161,2247
1777572194163,2213
1777572194165,2186
1777572194167,2197
1777572194169,2224
1777572194196,2237
1777572194198,2246
1777572194200,2265
1777572194202,2257
1777572194204,2236
1777572194206,2210
1777572194208,2173
1777572194210,2165
1777572194212,2210
1777572194214,2255
1777572194196,2276
1777572194198,2284
1777572194200,2263
1777572194202,2278
1777572194204,2234
1777572194206,2187
1777572194208,2153
1777572194210,2164
1777572194212,2174
1777572194214,2170
1777572194196,2165
1777572194198,2170
1777572194200,2162
1777572194202,2143
1777572194204,2112
1777572194206,2066
1777572194208,2018
1777572194210,2002
1777572194212,2007
1777572194214,2009
1777572194245,2016
1777572194247,2023
1777572194249,2010
1777572194251,1974
1777572194253,1929
1777572194255,1878
1777572194257,1873
1777572194259,1826
1777572194261,1791
1777572194263,1783
1777572194245,1766
1777572194247,1751
1777572194249,1731
1777572194251,1685
1777572194253,1629
1777572194255,1570
1777572194257,1502
1777572194259,1464
1777572194261,1454
1777572194263,1457
1777572194286,1454
1777572194288,1465
1777572194290,1456
1777572194292,1423
1777572194294,1378
1777572194296,1338
1777572194298,1308
1777572194300,1275
1777572194302,1316
1777572194304,1325
1777572194286,1325
1777572194288,1319
1777572194290,1299
1777572194292,1264
1777572194294,1214
1777572194296,1175
1777572194298,1173
1777572194300,1170
1777572194302,1182
1777572194304,1197
1777572194342,1210
1777572194344,1209
1777572194346,1212
1777572194348,1214
1777572194350,1187
1777572194352,1144
1777572194354,1117
1777572194356,1104
1777572194358,1105
1777572194360,1122
1777572194342,1136
1777572194344,1162
1777572194346,1152
1777572194348,1129
1777572194350,1085
1777572194352,1032
1777572194354,990
1777572194356,969
1777572194358,967
1777572194360,987
1777572194376,1013
1777572194378,1029
1777572194380,1030
1777572194382,1025
1777572194384,1007
1777572194386,979
1777572194388,965
1777572194390,965
1777572194392,974
1777572194394,987
1777572194376,988
1777572194378,992
1777572194380,973
1777572194382,988
1777572194384,942
1777572194386,901
1777572194388,871
1777572194390,859
1777572194392,860
1777572194394,872
1777572194376,890
1777572194378,919
1777572194380,918
1777572194382,899
1777572194384,859
1777572194386,827
1777572194388,819
1777572194390,815
1777572194392,825
1777572194394,834
1777572194421,843
1777572194423,859
1777572194425,876
1777572194427,870
1777572194429,839
1777572194431,794
1777572194433,807
1777572194435,785
1777572194437,775
1777572194439,777
1777572194421,779
1777572194423,768
1777572194425,754
1777572194427,750
1777572194429,726
1777572194431,682
1777572194433,645
1777572194435,659
1777572194437,678
1777572194439,694
1777572194469,716
1777572194471,730
1777572194473,725
1777572194475,713
1777572194477,691
1777572194479,671
1777572194481,673
1777572194483,666
1777572194485,710
1777572194487,716
1777572194469,715
1777572194471,712
1777572194473,700
1777572194475,683
1777572194477,655
1777572194479,621
1777572194481,605
1777572194483,593
1777572194485,602
1777572194487,631
1777572194511,655
1777572194513,664
1777572194515,673
1777572194517,663
1777572194519,636
1777572194521,611
1777572194523,584
1777572194525,561
1777572194527,554
1777572194529,561
1777572194511,586
1777572194513,647
1777572194515,648
1777572194517,614
1777572194519,569
1777572194521,545
1777572194523,534
1777572194525,537
1777572194527,538
1777572194529,548
1777572194566,566
1777572194568,588
1777572194570,599
1777572194572,585
1777572194574,556
1777572194576,539
1777572194578,529
1777572194580,512
1777572194582,507
1777572194584,519
1777572194566,529
1777572194568,539
1777572194570,533
1777572194572,572
1777572194574,554
1777572194576,512
1777572194578,473
1777572194580,470
1777572194582,479
1777572194584,491
1777572194566,508
1777572194568,527
1777572194570,542
1777572194572,538
1777572194574,513
1777572194576,478
1777572194578,433
1777572194580,420
1777572194582,438
1777572194584,480
1777572194601,512
1777572194603,537
1777572194605,535
1777572194607,510
1777572194609,476
1777572194611,431
1777572194613,457
1777572194615,457
1777572194617,459
1777572194619,463
1777572194601,472
1777572194603,474
1777572194605,466
1777572194607,460
1777572194609,452
1777572194611,413
1777572194613,396
1777572194615,394
1777572194617,396
1777572194619,416
1777572194646,439
1777572194648,456
1777572194650,466
1777572194652,459
1777572194654,432
1777572194656,385
1777572194658,364
1777572194660,347
1777572194662,410
1777572194664,440
1777572194646,456
1777572194648,459
1777572194650,471
1777572194652,463
1777572194654,433
1777572194656,401
1777572194658,373
1777572194660,364
1777572194662,378
1777572194664,399
1777572194693,431
1777572194695,468
1777572194697,489
1777572194699,472
1777572194701,447
1777572194703,423
1777572194705,405
1777572194707,408
1777572194709,425
1777572194711,446
1777572194693,459
1777572194695,506
1777572194697,535
1777572194699,537
1777572194701,505
1777572194703,467
1777572194705,430
1777572194707,431
1777572194709,455
1777572194711,480
1777572194736,503
1777572194738,532
1777572194740,536
1777572194742,521
1777572194744,501
1777572194746,483
1777572194748,472
1777572194750,475
1777572194752,490
1777572194754,510
1777572194736,520
1777572194738,537
1777572194740,530
1777572194742,557
1777572194744,538
1777572194746,488
1777572194748,473
1777572194750,479
1777572194752,491
1777572194754,492
1777572194736,490
1777572194738,509
1777572194740,529
1777572194742,532
1777572194744,502
1777572194746,491
1777572194748,491
1777572194750,504
1777572194752,516
1777572194754,539
1777572194789,562
1777572194791,587
1777572194793,599
1777572194795,585
1777572194797,551
1777572194799,503
1777572194801,537
1777572194803,537
1777572194805,531
1777572194807,527
1777572194789,541
1777572194791,553
1777572194793,550
1777572194795,541
1777572194797,542
1777572194799,512
1777572194801,510
1777572194803,526
1777572194805,553
1777572194807,579
1777572194826,596
1777572194828,603
1777572194830,619
1777572194832,618
1777572194834,602
1777572194836,578
1777572194838,572
1777572194840,560
1777572194842,622
1777572194844,646
1777572194826,657
1777572194828,652
1777572194830,657
1777572194832,652
1777572194834,624
1777572194836,617
1777572194838,633
1777572194840,640
1777572194842,664
1777572194844,686
1777572194873,716
1777572194875,746
1777572194877,754
1777572194879,749
1777572194881,735
1777572194883,722
1777572194885,713
1777572194887,714
1777572194889,728
1777572194891,751
1777572194873,756
1777572194875,808
1777572194877,811
1777572194879,805
1777572194881,788
1777572194883,754
1777572194885,725
1777572194887,737
1777572194889,758
1777572194891,773
1777572194873,793
1777572194875,816
1777572194877,823
1777572194879,813
1777572194881,804
1777572194883,774
1777572194885,757
1777572194887,775
1777572194889,809
1777572194891,839
1777572194918,858
1777572194920,880
1777572194922,870
1777572194924,893
1777572194926,877
1777572194928,836
1777572194930,817
1777572194932,802
1777572194934,793
1777572194936,796
1777572194918,807
1777572194920,815
1777572194922,824
1777572194924,806
1777572194926,770
1777572194928,735
1777572194930,733
1777572194932,755
1777572194934,784
1777572194936,808
1777572194961,843
1777572194963,869
1777572194965,879
1777572194967,889
1777572194969,877
1777572194971,858
1777572194973,879
1777572194975,887
1777572194977,894
1777572194979,916
1777572194961,937
1777572194963,931
1777572194965,919
1777572194967,921
1777572194969,911
1777572194971,896
1777572194973,891
1777572194975,899
1777572194977,903
1777572194979,911
1777572195014,941
1777572195016,987
1777572195018,1019
1777572195020,1034
1777572195022,1030
1777572195024,1019
1777572195026,1021
1777572195028,1020
1777572195030,1099
1777572195032,1143
1777572195014,1172
1777572195016,1203
1777572195018,1221
1777572195020,1233
1777572195022,1274
1777572195024,1340
1777572195026,1410
1777572195028,1500
1777572195030,1601
1777572195032,1710
1777572195096,1833
1777572195098,1958
1777572195100,2034
1777572195102,2060
1777572195104,2042
1777572195106,2002
1777572195108,1938
1777572195110,1873
1777572195112,1808
1777572195114,1735
1777572195096,1659
1777572195098,1616
1777572195100,1523
1777572195102,1399
1777572195104,1262
1777572195106,1156
1777572195108,1079
1777572195110,1032
1777572195112,1023
1777572195114,1043
1777572195096,1084
1777572195098,1119
1777572195100,1156
1777572195102,1176
1777572195104,1188
1777572195106,1194
1777572195108,1194
1777572195110,1216
1777572195112,1245
1777572195114,1281
1777572195109,1302
1777572195111,1316
1777572195113,1318
1777572195115,1340
1777572195117,1333
1777572195119,1315
1777572195121,1308
1777572195123,1332
1777572195125,1370
1777572195127,1410
1777572195109,1451
1777572195111,1475
1777572195113,1484
1777572195115,1479
1777572195117,1460
1777572195119,1431
1777572195121,1412
1777572195123,1415
1777572195125,1449
1777572195127,1478
1777572195142,1506
1777572195144,1524
1777572195146,1531
1777572195148,1543
1777572195150,1528
1777572195152,1490
1777572195154,1535
1777572195156,1557
1777572195158,1547
1777572195160,1543
1777572195142,1548
1777572195144,1550
1777572195146,1545
1777572195148,1507
1777572195150,1458
1777572195152,1432
1777572195154,1419
1777572195156,1440
1777572195158,1487
1777572195160,1546
1777572195186,1595
1777572195188,1638
1777572195190,1656
1777572195192,1650
1777572195194,1624
1777572195196,1599
1777572195198,1595
1777572195200,1593
1777572195202,1657
1777572195204,1695
1777572195186,1730
1777572195188,1749
1777572195190,1760
1777572195192,1749
1777572195194,1732
1777572195196,1722
1777572195198,1727
1777572195200,1758
1777572195202,1788
1777572195204,1837
1777572195237,1897
1777572195239,1929
1777572195241,1946
1777572195243,1946
1777572195245,1924
1777572195247,1914
1777572195249,1915
1777572195251,1942
1777572195253,1977
1777572195255,2013
1777572195237,2046
1777572195239,2109
1777572195241,2117
1777572195243,2116
1777572195245,2108
1777572195247,2105
1777572195249,2106
1777572195251,2121
1777572195253,2143
1777572195255,2168
1777572195237,2183
1777572195239,2192
1777572195241,2215
1777572195243,2227
1777572195245,2219
1777572195247,2217
1777572195249,2225
1777572195251,2232
1777572195253,2256
1777572195255,2290
1777572195276,2312
1777572195278,2310
1777572195280,2279
1777572195282,2282
1777572195284,2262
1777572195286,2216
1777572195288,2168
1777572195290,2142
1777572195292,2141
1777572195294,2156
1777572195276,2177
1777572195278,2181
1777572195280,2162
1777572195282,2125
1777572195284,2071
1777572195286,2030
1777572195288,1998
1777572195290,1982
1777572195292,1986
1777572195294,2009
1777572195321,2026
1777572195323,2015
1777572195325,2010
1777572195327,1998
1777572195329,1974
1777572195331,1946
1777572195333,1961
1777572195335,1970
1777572195337,1985
1777572195339,1995
1777572195322,2002
1777572195324,2006
1777572195326,1998
1777572195328,1990
1777572195330,1975
1777572195332,1952
1777572195334,1934
1777572195336,1942
1777572195338,1966
1777572195340,1996
1777572195381,2020
1777572195383,2038
1777572195385,2041
1777572195387,2053
1777572195389,2044
1777572195391,2021
1777572195393,2011
1777572195395,1998
1777572195397,2057
1777572195399,2086
1777572195381,2098
1777572195383,2105
1777572195385,2095
1777572195387,2069
1777572195389,2041
1777572195391,2030
1777572195393,2026
1777572195395,2030
1777572195397,2059
1777572195399,2095
1777572195415,2125
1777572195417,2160
1777572195419,2193
1777572195421,2199
1777572195423,2172
1777572195425,2149
1777572195427,2136
1777572195429,2146
1777572195431,2169
1777572195433,2193
1777572195415,2213
1777572195417,2257
1777572195419,2260
1777572195421,2264
1777572195423,2246
1777572195425,2225
1777572195427,2212
1777572195429,2218
1777572195431,2244
1777572195433,2289
1777572195415,2325
1777572195417,2335
1777572195419,2345
1777572195421,2340
1777572195423,2315
1777572195425,2295
1777572195427,2297
1777572195429,2307
1777572195431,2340
1777572195433,2375
1777572195461,2393
1777572195463,2402
1777572195465,2393
1777572195467,2425
1777572195469,2429
1777572195471,2400
1777572195473,2373
1777572195475,2368
1777572195477,2390
1777572195479,2414
1777572195461,2428
1777572195463,2431
1777572195465,2441
1777572195467,2448
1777572195469,2427
1777572195471,2410
1777572195473,2406
1777572195475,2417
1777572195477,2444
1777572195479,2475
1777572195501,2499
1777572195503,2507
1777572195505,2506
1777572195507,2505
1777572195509,2497
1777572195511,2484
1777572195513,2522
1777572195515,2527
1777572195517,2540
1777572195519,2555
1777572195502,2569
1777572195504,2571
1777572195506,2560
1777572195508,2539
1777572195510,2522
1777572195512,2506
1777572195514,2506
1777572195516,2521
1777572195518,2541
1777572195520,2573
1777572195557,2600
1777572195559,2621
1777572195561,2635
1777572195563,2637
1777572195565,2629
1777572195567,2610
1777572195569,2599
1777572195571,2586
1777572195573,2642
1777572195575,2666
1777572195557,2687
1777572195559,2694
1777572195561,2676
1777572195563,2650
1777572195565,2616
1777572195567,2595
1777572195569,2589
1777572195571,2608
1777572195573,2643
1777572195575,2680
1777572195592,2710
1777572195594,2729
1777572195596,2729
1777572195598,2715
1777572195600,2693
1777572195602,2670
1777572195604,2665
1777572195606,2685
1777572195608,2714
1777572195610,2745
1777572195593,2776
1777572195595,2823
1777572195597,2820
1777572195599,2807
1777572195601,2779
1777572195603,2761
1777572195605,2754
1777572195607,2765
1777572195609,2796
1777572195611,2833
1777572195593,2861
1777572195595,2874
1777572195597,2869
1777572195599,2852
1777572195601,2818
1777572195603,2788
1777572195605,2769
1777572195607,2786
1777572195609,2825
1777572195611,2858
1777572195636,2874
1777572195638,2877
1777572195640,2856
1777572195642,2878
1777572195644,2880
1777572195646,2854
1777572195648,2837
1777572195650,2837
1777572195652,2830
1777572195654,2827
1777572195636,2837
1777572195638,2844
1777572195640,2835
1777572195642,2818
1777572195644,2804
1777572195646,2796
1777572195648,2790
1777572195650,2796
1777572195652,2820
1777572195654,2860
1777572195685,2896
1777572195687,2916
1777572195689,2922
1777572195691,2921
1777572195693,2905
1777572195695,2893
1777572195697,2922
1777572195699,2936
1777572195701,2971
1777572195703,3012
1777572195685,3032
1777572195687,3034
1777572195689,3029
1777572195691,3007
1777572195693,2988
1777572195695,2984
1777572195697,2991
1777572195699,3010
1777572195701,3028
1777572195703,3047
1777572195726,3071
1777572195728,3089
1777572195730,3082
1777572195732,3055
1777572195734,3027
1777572195736,3007
1777572195738,2999
1777572195740,2991
1777572195742,3056
1777572195744,3074
1777572195726,3082
1777572195728,3094
1777572195730,3090
1777572195732,3069
1777572195734,3037
1777572195736,3018
1777572195738,3006
1777572195740,3016
1777572195742,3031
1777572195744,3050
1777572195781,3073
1777572195783,3084
1777572195785,3073
1777572195787,3060
1777572195789,3034
1777572195791,3022
1777572195793,3027
1777572195795,3051
1777572195797,3075
1777572195799,3110
1777572195781,3151
1777572195783,3203
1777572195785,3213
1777572195787,3192
1777572195789,3159
1777572195791,3132
1777572195793,3115
1777572195795,3121
1777572195797,3144
1777572195799,3171
1777572195781,3189
1777572195783,3197
1777572195785,3194
1777572195787,3171
1777572195789,3139
1777572195791,3133
1777572195793,3146
1777572195795,3160
1777572195797,3179
1777572195799,3213
1777572195816,3226
1777572195818,3238
1777572195820,3210
1777572195822,3209
1777572195824,3181
1777572195826,3141
1777572195828,3119
1777572195830,3121
1777572195832,3128
1777572195834,3156
1777572195861,3177
1777572195863,3182
1777572195865,3191
1777572195867,3179
1777572195869,3153
1777572195871,3119
1777572195873,3098
1777572195875,3104
1777572195877,3139
1777572195879,3173
1777572195861,3203
1777572195863,3223
1777572195865,3226
1777572195867,3209
1777572195869,3180
1777572195871,3156
1777572195873,3162
1777572195875,3187
1777572195877,3233
1777572195879,3275
1777572195862,3306
1777572195864,3332
1777572195866,3331
1777572195868,3308
1777572195870,3270
1777572195872,3244
1777572195874,3230
1777572195876,3238
1777572195878,3251
1777572195880,3271
1777572195909,3300
1777572195911,3325
1777572195913,3330
1777572195915,3316
1777572195917,3299
1777572195919,3282
1777572195921,3287
1777572195923,3276
1777572195925,3308
1777572195927,3339
1777572195909,3346
1777572195911,3336
1777572195913,3309
1777572195915,3267
1777572195917,3237
1777572195919,3225
1777572195921,3215
1777572195923,3231
1777572195925,3250
1777572195927,3274
1777572195951,3300
1777572195953,3316
1777572195955,3312
1777572195957,3296
1777572195959,3274
1777572195961,3251
1777572195963,3242
1777572195965,3258
1777572195967,3279
1777572195969,3299
1777572195951,3326
1777572195953,3374
1777572195955,3381
1777572195957,3350
1777572195959,3292
1777572195961,3253
1777572195963,3237
1777572195965,3238
1777572195967,3256
1777572195969,3281
1777572195951,3303
1777572195953,3326
1777572195955,3336
1777572195957,3314
1777572195959,3298
1777572195961,3287
1777572195963,3288
1777572195965,3304
1777572195967,3331
1777572195969,3367
1777572196005,3403
1777572196007,3420
1777572196009,3392
1777572196011,3395
1777572196013,3386
1777572196015,3372
1777572196017,3362
1777572196019,3367
1777572196021,3377
1777572196023,3400
1777572196041,3422
1777572196043,3433
1777572196045,3422
1777572196047,3393
1777572196049,3373
1777572196051,3353
1777572196053,3343
1777572196055,3355
1777572196057,3374
1777572196059,3401
1777572196041,3433
1777572196043,3455
1777572196045,3465
1777572196047,3439
1777572196049,3406
1777572196051,3375
1777572196053,3369
1777572196055,3368
1777572196057,3385
1777572196059,3419
1777572196041,3445
1777572196043,3464
1777572196045,3464
1777572196047,3441
1777572196049,3397
1777572196051,3365
1777572196053,3365
1777572196055,3382
1777572196057,3420
1777572196059,3464
1777572196086,3491
1777572196088,3499
1777572196090,3492
1777572196092,3479
1777572196094,3453
1777572196096,3416
1777572196098,3405
1777572196100,3399
1777572196102,3443
1777572196104,3475
1777572196086,3489
1777572196088,3492
1777572196090,3483
1777572196092,3446
1777572196094,3417
1777572196096,3396
1777572196098,3370
1777572196100,3357
1777572196102,3377
1777572196104,3407
1777572196133,3432
1777572196135,3441
1777572196137,3438
1777572196139,3414
1777572196141,3389
1777572196143,3388
1777572196145,3392
1777572196147,3410
1777572196149,3425
1777572196151,3460
1777572196133,3474
1777572196135,3505
1777572196137,3499
1777572196139,3482
1777572196141,3448
1777572196143,3419
1777572196145,3411
1777572196147,3419
1777572196149,3440
1777572196151,3467
1777572196176,3497
1777572196178,3515
1777572196180,3513
1777572196182,3513
1777572196184,3538
1777572196186,3561
1777572196188,3613
1777572196190,3699
1777572196192,3801
1777572196194,3910
1777572196177,4039
1777572196179,4095
1777572196181,4095
1777572196183,4095
1777572196185,4095
1777572196187,4095
1777572196189,4095
1777572196191,4095
1777572196193,4095
1777572196195,4095
1777572196177,4095
1777572196179,4095
1777572196181,4094
1777572196183,4001
1777572196185,3833
1777572196187,3689
1777572196189,3577
1777572196191,3503
1777572196193,3452
1777572196195,3412
1777572196229,3384
1777572196231,3366
1777572196233,3341
1777572196235,3323
1777572196237,3311
1777572196239,3280
1777572196241,3324
1777572196243,3340
1777572196245,3371
1777572196247,3400
1777572196229,3420
1777572196231,3432
1777572196233,3420
1777572196235,3398
1777572196237,3366
1777572196239,3349
1777572196241,3330
1777572196243,3337
1777572196245,3374
1777572196247,3419
1777572196267,3467
1777572196269,3506
1777572196271,3506
1777572196273,3478
1777572196275,3463
1777572196277,3461
1777572196279,3464
1777572196281,3450
1777572196283,3503
1777572196285,3543
1777572196267,3576
1777572196269,3581
1777572196271,3552
1777572196273,3504
1777572196275,3466
1777572196277,3463
1777572196279,3486
1777572196281,3506
1777572196283,3531
1777572196285,3556
1777572196267,3574
1777572196269,3580
1777572196271,3578
1777572196273,3553
1777572196275,3514
1777572196277,3490
1777572196279,3506
1777572196281,3542
1777572196283,3579
1777572196285,3629
1777572196311,3642
1777572196313,3682
1777572196315,3651
1777572196317,3610
1777572196319,3568
1777572196321,3537
1777572196323,3516
1777572196325,3513
1777572196327,3519
1777572196329,3543
1777572196357,3573
1777572196359,3595
1777572196361,3589
1777572196363,3550
1777572196365,3520
1777572196367,3515
1777572196369,3537
1777572196371,3570
1777572196373,3608
1777572196375,3656
1777572196357,3701
1777572196359,3721
1777572196361,3724
1777572196363,3745
1777572196365,3723
1777572196367,3707
1777572196369,3710
1777572196371,3738
1777572196373,3773
1777572196375,3818
1777572196357,3859
1777572196359,3891
1777572196361,3888
1777572196363,3860
1777572196365,3842
1777572196367,3849
1777572196369,3856
1777572196371,3878
1777572196373,3912
1777572196375,3954
1777572196401,3986
1777572196403,3996
1777572196405,3979
1777572196407,3952
1777572196409,3921
1777572196411,3885
1777572196413,3903
1777572196415,3901
1777572196417,3901
1777572196419,3900
1777572196401,3899
1777572196403,3892
1777572196405,3876
1777572196407,3833
1777572196409,3773
1777572196411,3717
1777572196413,3691
1777572196415,3700
1777572196417,3722
1777572196419,3745
1777572196453,3755
1777572196455,3746
1777572196457,3722
1777572196459,3682
1777572196461,3620
1777572196463,3576
1777572196465,3542
1777572196467,3516
1777572196469,3544
1777572196471,3556
1777572196453,3567
1777572196455,3557
1777572196457,3526
1777572196459,3477
1777572196461,3424
1777572196463,3393
1777572196465,3369
1777572196467,3369
1777572196469,3383
1777572196471,3394
1777572196492,3402
1777572196494,3399
1777572196496,3377
1777572196498,3342
1777572196500,3313
1777572196502,3290
1777572196504,3290
1777572196506,3294
1777572196508,3299
1777572196510,3330
1777572196492,3354
1777572196494,3401
1777572196496,3388
1777572196498,3364
1777572196500,3331
1777572196502,3289
1777572196504,3262
1777572196506,3268
1777572196508,3282
1777572196510,3309
1777572196536,3323
1777572196538,3315
1777572196540,3299
1777572196542,3280
1777572196544,3251
1777572196546,3229
1777572196548,3221
1777572196550,3245
1777572196552,3289
1777572196554,3332
1777572196536,3346
1777572196538,3346
1777572196540,3325
1777572196542,3339
1777572196544,3317
1777572196546,3285
1777572196548,3271
1777572196550,3272
1777572196552,3279
1777572196554,3303
1777572196536,3328
1777572196538,3340
1777572196540,3344
1777572196542,3328
1777572196544,3305
1777572196546,3285
1777572196548,3279
1777572196550,3298
1777572196552,3308
1777572196554,3327
1777572196581,3355
1777572196583,3372
1777572196585,3383
1777572196587,3360
1777572196589,3323
1777572196591,3282
1777572196593,3320
1777572196595,3311
1777572196597,3317
1777572196599,3324
1777572196581,3325
1777572196583,3305
1777572196585,3283
1777572196587,3266
1777572196589,3246
1777572196591,3228
1777572196593,3216
1777572196595,3219
1777572196597,3227
1777572196599,3246
1777572196626,3272
1777572196628,3285
1777572196630,3275
1777572196632,3252
1777572196634,3218
1777572196636,3219
1777572196638,3227
1777572196640,3221
1777572196642,3276
1777572196644,3327
1777572196626,3349
1777572196628,3357
1777572196630,3347
1777572196632,3307
1777572196634,3263
1777572196636,3239
1777572196638,3239
1777572196640,3261
1777572196642,3284
1777572196644,3311
1777572196677,3331
1777572196679,3327
1777572196681,3312
1777572196683,3296
1777572196685,3271
1777572196687,3265
1777572196689,3282
1777572196691,3312
1777572196693,3339
1777572196695,3368
1777572196677,3373
1777572196679,3391
1777572196681,3370
1777572196683,3326
1777572196685,3281
1777572196687,3256
1777572196689,3231
1777572196691,3228
1777572196693,3249
1777572196695,3280
1777572196717,3312
1777572196719,3330
1777572196721,3307
1777572196723,3267
1777572196725,3224
1777572196727,3208
1777572196729,3226
1777572196731,3255
1777572196733,3282
1777572196735,3311
1777572196717,3330
1777572196719,3337
1777572196721,3313
1777572196723,3317
1777572196725,3290
1777572196727,3252
1777572196729,3240
1777572196731,3246
1777572196733,3269
1777572196735,3300
1777572196717,3308
1777572196719,3283
1777572196721,3261
1777572196723,3230
1777572196725,3212
1777572196727,3200
1777572196729,3198
1777572196731,3213
1777572196733,3235
1777572196735,3245
1777572196761,3259
1777572196763,3258
1777572196765,3258
1777572196767,3235
1777572196769,3205
1777572196771,3176
1777572196773,3223
1777572196775,3225
1777572196777,3216
1777572196779,3206
1777572196761,3189
1777572196763,3184
1777572196765,3169
1777572196767,3146
1777572196769,3120
1777572196771,3102
1777572196773,3087
1777572196775,3092
1777572196777,3122
1777572196779,3163
1777572196807,3189
1777572196809,3193
1777572196811,3181
1777572196813,3144
1777572196815,3104
1777572196817,3088
1777572196819,3104
1777572196821,3109
1777572196823,3158
1777572196825,3184
1777572196807,3196
1777572196809,3199
1777572196811,3196
1777572196813,3173
1777572196815,3133
1777572196817,3122
1777572196819,3124
1777572196821,3148
1777572196823,3178
1777572196825,3215
1777572196854,3240
1777572196856,3246
1777572196858,3239
1777572196860,3218
1777572196862,3177
1777572196864,3149
1777572196866,3143
1777572196868,3147
1777572196870,3154
1777572196872,3172
1777572196854,3192
1777572196856,3245
1777572196858,3232
1777572196860,3178
1777572196862,3112
1777572196864,3068
1777572196866,3066
1777572196868,3072
1777572196870,3090
1777572196872,3098
1777572196902,3099
1777572196904,3101
1777572196906,3098
1777572196908,3076
1777572196910,3049
1777572196912,3047
1777572196914,3050
1777572196916,3075
1777572196918,3109
1777572196920,3128
1777572196902,3143
1777572196904,3141
1777572196906,3107
1777572196908,3113
1777572196910,3079
1777572196912,3057
1777572196914,3047
1777572196916,3053
1777572196918,3069
1777572196920,3085
1777572196902,3098
1777572196904,3106
1777572196906,3092
1777572196908,3064
1777572196910,3033
1777572196912,3013
1777572196914,3004
1777572196916,3021
1777572196918,3048
1777572196920,3070
1777572196941,3090
1777572196943,3105
1777572196945,3094
1777572196947,3056
1777572196949,3020
1777572196951,2974
1777572196953,2999
1777572196955,3000
1777572196957,3015
1777572196959,3030
1777572196941,3027
1777572196943,3014
1777572196945,2996
1777572196947,2967
1777572196949,2930
1777572196951,2908
1777572196953,2916
1777572196955,2934
1777572196957,2959
1777572196959,2978
1777572196997,2989
1777572196999,2994
1777572197001,2985
1777572197003,2957
1777572197005,2939
1777572197007,2938
1777572197009,2936
1777572197011,2923
1777572197013,2970
1777572197015,3009
1777572196998,3027
1777572197000,3026
1777572197002,3015
1777572197004,2998
1777572197006,2981
1777572197008,2973
1777572197010,2970
1777572197012,2974
1777572197014,2987
1777572197016,3005
1777572197031,2999
1777572197033,2988
1777572197035,2984
1777572197037,2961
1777572197039,2935
1777572197041,2926
1777572197043,2936
1777572197045,2970
1777572197047,2993
1777572197049,3015
1777572197031,3012
1777572197033,3037
1777572197035,3021
1777572197037,2986
1777572197039,2949
1777572197041,2920
1777572197043,2908
1777572197045,2922
1777572197047,2943
1777572197049,2955
1777572197076,2963
1777572197078,2960
1777572197080,2950
1777572197082,2919
1777572197084,2879
1777572197086,2864
1777572197088,2864
1777572197090,2883
1777572197092,2922
1777572197094,2947
1777572197076,2948
1777572197078,2935
1777572197080,2896
1777572197082,2919
1777572197084,2907
1777572197086,2898
1777572197088,2888
1777572197090,2878
1777572197092,2883
1777572197094,2893
1777572197077,2910
1777572197079,2922
1777572197081,2922
1777572197083,2909
1777572197085,2875
1777572197087,2857
1777572197089,2858
1777572197091,2867
1777572197093,2882
1777572197095,2900
1777572197125,2918
1777572197127,2923
1777572197129,2922
1777572197131,2894
1777572197133,2872
1777572197135,2841
1777572197137,2890
1777572197139,2907
1777572197141,2931
1777572197143,2938
1777572197125,2932
1777572197127,2915
1777572197129,2895
1777572197131,2866
1777572197133,2832
1777572197135,2809
1777572197137,2794
1777572197139,2811
1777572197141,2834
1777572197143,2856
1777572197166,2875
1777572197168,2878
1777572197170,2861
1777572197172,2818
1777572197174,2782
1777572197176,2765
1777572197178,2782
1777572197180,2804
1777572197182,2885
1777572197184,2927
1777572197166,2946
1777572197168,2962
1777572197170,2952
1777572197172,2910
1777572197174,2850
1777572197176,2816
1777572197178,2811
1777572197180,2824
1777572197182,2848
1777572197184,2875
1777572197221,2894
1777572197223,2891
1777572197225,2861
1777572197227,2815
1777572197229,2768
1777572197231,2752
1777572197233,2763
1777572197235,2778
1777572197237,2785
1777572197239,2811
1777572197221,2818
1777572197223,2848
1777572197225,2820
1777572197227,2768
1777572197229,2707
1777572197231,2682
1777572197233,2682
1777572197235,2698
1777572197237,2704
1777572197239,2727
1777572197256,2749
1777572197258,2759
1777572197260,2768
1777572197262,2757
1777572197264,2740
1777572197266,2742
1777572197268,2746
1777572197270,2758
1777572197272,2774
1777572197274,2787
1777572197256,2789
1777572197258,2778
1777572197260,2746
1777572197262,2743
1777572197264,2721
1777572197266,2714
1777572197268,2703
1777572197270,2707
1777572197272,2714
1777572197274,2728
1777572197256,2742
1777572197258,2742
1777572197260,2716
1777572197262,2694
1777572197264,2674
1777572197266,2675
1777572197268,2700
1777572197270,2736
1777572197272,2784
1777572197274,2829
1777572197301,2861
1777572197303,2897
1777572197305,2942
1777572197307,2962
1777572197309,3003
1777572197311,3050
1777572197313,3178
1777572197315,3256
1777572197317,3343
1777572197319,3410
1777572197301,3443
1777572197303,3423
1777572197305,3372
1777572197307,3290
1777572197309,3204
1777572197311,3119
1777572197313,3029
1777572197315,2946
1777572197317,2869
1777572197319,2800
1777572197350,2723
1777572197352,2653
1777572197354,2591
1777572197356,2535
1777572197358,2476
1777572197360,2437
1777572197362,2414
1777572197364,2383
1777572197366,2429
1777572197368,2460
1777572197350,2479
1777572197352,2469
1777572197354,2449
1777572197356,2431
1777572197358,2428
1777572197360,2428
1777572197362,2442
1777572197364,2462
1777572197366,2494
1777572197368,2518
1777572197392,2527
1777572197394,2535
1777572197396,2540
1777572197398,2532
1777572197400,2521
1777572197402,2517
1777572197404,2525
1777572197406,2544
1777572197408,2565
1777572197410,2597
1777572197392,2597
1777572197394,2625
1777572197396,2598
1777572197398,2556
1777572197400,2518
1777572197402,2505
1777572197404,2510
1777572197406,2530
1777572197408,2546
1777572197410,2566
1777572197445,2575
1777572197447,2587
1777572197449,2575
1777572197451,2559
1777572197453,2541
1777572197455,2531
1777572197457,2526
1777572197459,2550
1777572197461,2587
1777572197463,2602
1777572197445,2594
1777572197447,2599
1777572197449,2574
1777572197451,2579
1777572197453,2566
1777572197455,2554
1777572197457,2550
1777572197459,2569
1777572197461,2596
1777572197463,2623
1777572197445,2643
1777572197447,2636
1777572197449,2624
1777572197451,2607
1777572197453,2591
1777572197455,2573
1777572197457,2555
1777572197459,2575
1777572197461,2599
1777572197463,2631
1777572197481,2658
1777572197483,2666
1777572197485,2654
1777572197487,2620
1777572197489,2586
1777572197491,2539
1777572197493,2588
1777572197495,2614
1777572197497,2648
1777572197499,2667
1777572197481,2672
1777572197483,2664
1777572197485,2651
1777572197487,2631
1777572197489,2606
1777572197491,2591
1777572197493,2612
1777572197495,2639
1777572197497,2663
1777572197499,2682
1777572197526,2698
1777572197528,2699
1777572197530,2695
1777572197532,2679
1777572197534,2668
1777572197536,2669
1777572197538,2677
1777572197540,2677
1777572197542,2738
1777572197544,2773
1777572197526,2780
1777572197528,2780
1777572197530,2753
1777572197532,2712
1777572197534,2666
1777572197536,2645
1777572197538,2634
1777572197540,2633
1777572197542,2651
1777572197544,2675
1777572197574,2707
1777572197576,2718
1777572197578,2697
1777572197580,2663
1777572197582,2636
1777572197584,2615
1777572197586,2602
1777572197588,2599
1777572197590,2589
1777572197592,2601
1777572197574,2600
1777572197576,2628
1777572197578,2593
1777572197580,2539
1777572197582,2478
1777572197584,2430
1777572197586,2398
1777572197588,2390
1777572197590,2397
1777572197592,2414
1777572197669,2419
1777572197671,2415
1777572197673,2389
1777572197675,2359
1777572197677,2323
1777572197679,2301
1777572197681,2299
1777572197683,2318
1777572197685,2339
1777572197687,2348
1777572197669,2336
1777572197671,2311
1777572197673,2262
1777572197675,2262
1777572197677,2244
1777572197679,2224
1777572197681,2223
1777572197683,2240
1777572197685,2251
1777572197687,2262
1777572197669,2261
1777572197671,2249
1777572197673,2228
1777572197675,2194
1777572197677,2168
1777572197679,2154
1777572197681,2168
1777572197683,2191
1777572197685,2212
1777572197687,2223
1777572197669,2235
1777572197671,2249
1777572197673,2246
1777572197675,2231
1777572197677,2212
1777572197679,2224
1777572197681,2256
1777572197683,2273
1777572197685,2301
1777572197687,2321
1777572197669,2331
1777572197671,2329
1777572197673,2315
1777572197675,2292
1777572197677,2261
1777572197679,2249
1777572197681,2261
1777572197683,2292
1777572197685,2327
1777572197687,2346
1777572197715,2362
1777572197717,2373
1777572197719,2359
1777572197721,2329
1777572197723,2300
1777572197725,2285
1777572197727,2294
1777572197729,2309
1777572197731,2337
1777572197733,2411
1777572197715,2407
1777572197717,2373
1777572197719,2326
1777572197721,2276
1777572197723,2211
1777572197725,2177
1777572197727,2169
1777572197729,2185
1777572197731,2212
1777572197733,2237
1777572197751,2254
1777572197753,2266
1777572197755,2258
1777572197757,2239
1777572197759,2222
1777572197761,2205
1777572197763,2210
1777572197765,2250
1777572197767,2288
1777572197769,2313
1777572197751,2325
1777572197753,2363
1777572197755,2349
1777572197757,2305
1777572197759,2263
1777572197761,2249
1777572197763,2251
1777572197765,2264
1777572197767,2291
1777572197769,2320
1777572197751,2349
1777572197753,2352
1777572197755,2342
1777572197757,2320
1777572197759,2296
1777572197761,2286
1777572197763,2290
1777572197765,2320
1777572197767,2366
1777572197769,2405
1777572197798,2413
1777572197800,2406
1777572197802,2366
1777572197804,2362
1777572197806,2358
1777572197808,2339
1777572197810,2328
1777572197812,2332
1777572197814,2349
1777572197816,2362
1777572197798,2361
1777572197800,2351
1777572197802,2329
1777572197804,2307
1777572197806,2288
1777572197808,2287
1777572197810,2332
1777572197812,2375
1777572197814,2397
1777572197816,2413
1777572197846,2418
1777572197848,2411
1777572197850,2394
1777572197852,2374
1777572197854,2361
1777572197856,2356
1777572197858,2394
1777572197860,2413
1777572197862,2441
1777572197864,2464
1777572197846,2478
1777572197848,2476
1777572197850,2446
1777572197852,2410
1777572197854,2385
1777572197856,2386
1777572197858,2400
1777572197860,2424
1777572197862,2450
1777572197864,2482
1777572197896,2506
1777572197898,2515
1777572197900,2519
1777572197902,2496
1777572197904,2471
1777572197906,2471
1777572197908,2478
1777572197910,2489
1777572197912,2548
1777572197914,2582
1777572197896,2596
1777572197898,2594
1777572197900,2571
1777572197902,2529
1777572197904,2480
1777572197906,2456
1777572197908,2455
1777572197910,2486
1777572197912,2512
1777572197914,2520
1777572197946,2531
1777572197948,2555
1777572197950,2547
1777572197952,2518
1777572197954,2496
1777572197956,2493
1777572197958,2508
1777572197960,2538
1777572197962,2554
1777572197964,2573
1777572197946,2564
1777572197948,2589
1777572197950,2581
1777572197952,2552
1777572197954,2522
1777572197956,2513
1777572197958,2519
1777572197960,2538
1777572197962,2564
1777572197964,2589
1777572197946,2612
1777572197948,2615
1777572197950,2594
1777572197952,2567
1777572197954,2550
1777572197956,2544
1777572197958,2551
1777572197960,2567
1777572197962,2582
1777572197964,2599
1777572197979,2621
1777572197981,2643
1777572197983,2626
1777572197985,2622
1777572197987,2599
1777572197989,2569
1777572197991,2552
1777572197993,2546
1777572197995,2557
1777572197997,2570
1777572197979,2574
1777572197981,2569
1777572197983,2548
1777572197985,2517
1777572197987,2490
1777572197989,2484
1777572197991,2493
1777572197993,2508
1777572197995,2525
1777572197997,2553
1777572198029,2573
1777572198031,2578
1777572198033,2559
1777572198035,2546
1777572198037,2540
1777572198039,2539
1777572198041,2584
1777572198043,2598
1777572198045,2622
1777572198047,2640
1777572198029,2650
1777572198031,2650
1777572198033,2633
1777572198035,2604
1777572198037,2561
1777572198039,2556
1777572198041,2559
1777572198043,2583
1777572198045,2634
1777572198047,2669
1777572198066,2680
1777572198068,2677
1777572198070,2648
1777572198072,2606
1777572198074,2570
1777572198076,2554
1777572198078,2560
1777572198080,2560
1777572198082,2638
1777572198084,2678
1777572198066,2684
1777572198068,2666
1777572198070,2632
1777572198072,2596
1777572198074,2585
1777572198076,2584
1777572198078,2592
1777572198080,2610
1777572198082,2627
1777572198084,2648
1777572198118,2662
1777572198120,2657
1777572198122,2628
1777572198124,2590
1777572198126,2561
1777572198128,2552
1777572198130,2559
1777572198132,2600
1777572198134,2643
1777572198136,2662
1777572198118,2664
1777572198120,2695
1777572198122,2683
1777572198124,2672
1777572198126,2647
1777572198128,2637
1777572198130,2642
1777572198132,2655
1777572198134,2673
1777572198136,2672
1777572198118,2665
1777572198120,2667
1777572198122,2654
1777572198124,2622
1777572198126,2601
1777572198128,2589
1777572198130,2599
1777572198132,2624
1777572198134,2650
1777572198136,2677
1777572198165,2691
1777572198167,2684
1777572198169,2659
1777572198171,2649
1777572198173,2638
1777572198175,2617
1777572198177,2603
1777572198179,2603
1777572198181,2619
1777572198183,2634
1777572198165,2648
1777572198167,2652
1777572198169,2634
1777572198171,2594
1777572198173,2563
1777572198175,2561
1777572198177,2587
1777572198179,2621
1777572198181,2651
1777572198183,2674
1777572198201,2683
1777572198203,2675
1777572198205,2661
1777572198207,2637
1777572198209,2610
1777572198211,2588
1777572198213,2634
1777572198215,2669
1777572198217,2707
1777572198219,2741
1777572198202,2750
1777572198204,2737
1777572198206,2720
1777572198208,2690
1777572198210,2653
1777572198212,2635
1777572198214,2649
1777572198216,2664
1777572198218,2679
1777572198220,2698
1777572198265,2698
1777572198267,2692
1777572198269,2665
1777572198271,2634
1777572198273,2598
1777572198275,2563
1777572198277,2563
1777572198279,2588
1777572198281,2647
1777572198283,2657
1777572198265,2644
1777572198267,2626
1777572198269,2597
1777572198271,2560
1777572198273,2539
1777572198275,2535
1777572198277,2548
1777572198279,2576
1777572198281,2610
1777572198283,2634
1777572198291,2637
1777572198293,2630
1777572198295,2612
1777572198297,2572
1777572198299,2534
1777572198301,2532
1777572198303,2560
1777572198305,2599
1777572198307,2631
1777572198309,2649
1777572198291,2657
1777572198293,2693
1777572198295,2668
1777572198297,2636
1777572198299,2598
1777572198301,2570
1777572198303,2554
1777572198305,2553
1777572198307,2578
1777572198309,2611
1777572198291,2643
1777572198293,2652
1777572198295,2638
1777572198297,2612
1777572198299,2592
1777572198301,2587
1777572198303,2611
1777572198305,2642
1777572198307,2673
1777572198309,2705
1777572198345,2722
1777572198347,2734
1777572198349,2730
1777572198351,2752
1777572198353,2764
1777572198355,2780
1777572198357,2834
1777572198359,2925
1777572198361,3021
1777572198363,3104
1777572198345,3187
1777572198347,3262
1777572198349,3323
1777572198351,3327
1777572198353,3297
1777572198355,3279
1777572198357,3259
1777572198359,3213
1777572198361,3141
1777572198363,3055
1777572198395,2978
1777572198397,2895
1777572198399,2795
1777572198401,2672
1777572198403,2562
1777572198405,2483
1777572198407,2482
1777572198409,2465
1777572198411,2456
1777572198413,2456
1777572198395,2452
1777572198397,2448
1777572198399,2439
1777572198401,2417
1777572198403,2407
1777572198405,2414
1777572198407,2443
1777572198409,2488
1777572198411,2533
1777572198413,2564
1777572198428,2576
1777572198430,2585
1777572198432,2572
1777572198434,2543
1777572198436,2518
1777572198438,2500
1777572198440,2502
1777572198442,2521
1777572198444,2587
1777572198446,2609
1777572198428,2607
1777572198430,2602
1777572198432,2574
1777572198434,2541
1777572198436,2511
1777572198438,2496
1777572198440,2495
1777572198442,2517
1777572198444,2559
1777572198446,2590
1777572198473,2623
1777572198475,2594
1777572198477,2574
1777572198479,2552
1777572198481,2532
1777572198483,2526
1777572198485,2549
1777572198487,2586
1777572198489,2622
1777572198491,2646
1777572198474,2646
1777572198476,2671
1777572198478,2661
1777572198480,2624
1777572198482,2578
1777572198484,2562
1777572198486,2587
1777572198488,2626
1777572198490,2656
1777572198492,2679
1777572198474,2693
1777572198476,2686
1777572198478,2671
1777572198480,2649
1777572198482,2614
1777572198484,2606
1777572198486,2628
1777572198488,2658
1777572198490,2679
1777572198492,2693
1777572198516,2692
1777572198518,2674
1777572198520,2626
1777572198522,2629
1777572198524,2647
1777572198526,2639
1777572198528,2643
1777572198530,2651
1777572198532,2670
1777572198534,2689
1777572198517,2699
1777572198519,2696
1777572198521,2682
1777572198523,2652
1777572198525,2630
1777572198527,2640
1777572198529,2665
1777572198531,2702
1777572198533,2734
1777572198535,2746
1777572198569,2735
1777572198571,2732
1777572198573,2740
1777572198575,2742
1777572198577,2737
1777572198579,2749
1777572198581,2823
1777572198583,2862
1777572198585,2892
1777572198587,2904
1777572198570,2901
1777572198572,2881
1777572198574,2847
1777572198576,2801
1777572198578,2774
1777572198580,2775
1777572198582,2800
1777572198584,2823
1777572198586,2842
1777572198588,2846
1777572198607,2841
1777572198609,2833
1777572198611,2815
1777572198613,2778
1777572198615,2754
1777572198617,2747
1777572198619,2750
1777572198621,2736
1777572198623,2765
1777572198625,2763
1777572198607,2747
1777572198609,2712
1777572198611,2660
1777572198613,2618
1777572198615,2576
1777572198617,2534
1777572198619,2504
1777572198621,2509
1777572198623,2523
1777572198625,2521
1777572198666,2512
1777572198668,2496
1777572198670,2458
1777572198672,2416
1777572198674,2374
1777572198676,2347
1777572198678,2350
1777572198680,2379
1777572198682,2405
1777572198684,2419
1777572198666,2410
1777572198668,2418
1777572198670,2387
1777572198672,2339
1777572198674,2291
1777572198676,2269
1777572198678,2273
1777572198680,2282
1777572198682,2293
1777572198684,2299
1777572198666,2298
1777572198668,2288
1777572198670,2277
1777572198672,2265
1777572198674,2242
1777572198676,2236
1777572198678,2260
1777572198680,2297
1777572198682,2330
1777572198684,2347
1777572198697,2351
1777572198699,2336
1777572198701,2278
1777572198703,2249
1777572198705,2242
1777572198707,2233
1777572198709,2230
1777572198711,2245
1777572198713,2264
1777572198715,2258
1777572198741,2253
1777572198743,2250
1777572198745,2250
1777572198747,2230
1777572198749,2221
1777572198751,2220
1777572198753,2236
1777572198755,2268
1777572198757,2300
1777572198759,2326
1777572198741,2339
1777572198743,2331
1777572198745,2318
1777572198747,2291
1777572198749,2275
1777572198751,2273
1777572198753,2319
1777572198755,2352
1777572198757,2373
1777572198759,2381
1777572198742,2391
1777572198744,2392
1777572198746,2368
1777572198748,2336
1777572198750,2294
1777572198752,2279
1777572198754,2292
1777572198756,2325
1777572198758,2363
1777572198760,2404
1777572198793,2436
1777572198795,2435
1777572198797,2419
1777572198799,2388
1777572198801,2368
1777572198803,2355
1777572198805,2364
1777572198807,2371
1777572198809,2412
1777572198811,2438
1777572198794,2425
1777572198796,2405
1777572198798,2381
1777572198800,2351
1777572198802,2318
1777572198804,2304
1777572198806,2297
1777572198808,2303
1777572198810,2326
1777572198812,2354
1777572198831,2371
1777572198833,2367
1777572198835,2358
1777572198837,2335
1777572198839,2312
1777572198841,2316
1777572198843,2332
1777572198845,2362
1777572198847,2389
1777572198849,2413
1777572198831,2410
1777572198833,2427
1777572198835,2401
1777572198837,2360
1777572198839,2334
1777572198841,2320
1777572198843,2319
1777572198845,2332
1777572198847,2358
1777572198849,2378
1777572198831,2388
1777572198833,2383
1777572198835,2360
1777572198837,2335
1777572198839,2325
1777572198841,2331
1777572198843,2347
1777572198845,2374
1777572198847,2404
1777572198849,2426
1777572198890,2421
1777572198892,2403
1777572198894,2360
1777572198896,2352
1777572198898,2361
1777572198900,2357
1777572198902,2346
1777572198904,2346
1777572198906,2357
1777572198908,2365
1777572198922,2361
1777572198924,2337
1777572198926,2302
1777572198928,2286
1777572198930,2274
1777572198932,2268
1777572198934,2274
1777572198936,2301
1777572198938,2333
1777572198940,2357
1777572198922,2375
1777572198924,2380
1777572198926,2380
1777572198928,2351
1777572198930,2335
1777572198932,2337
1777572198934,2365
1777572198936,2387
1777572198938,2412
1777572198940,2432
1777572198923,2429
1777572198925,2418
1777572198927,2393
1777572198929,2378
1777572198931,2351
1777572198933,2343
1777572198935,2352
1777572198937,2375
1777572198939,2418
1777572198941,2456
1777572198966,2474
1777572198968,2470
1777572198970,2447
1777572198972,2419
1777572198974,2407
1777572198976,2407
1777572198978,2414
1777572198980,2416
1777572198982,2449
1777572198984,2478
1777572198966,2486
1777572198968,2456
1777572198970,2414
1777572198972,2381
1777572198974,2351
1777572198976,2345
1777572198978,2349
1777572198980,2360
1777572198982,2382
1777572198984,2409
1777572199017,2431
1777572199019,2425
1777572199021,2390
1777572199023,2352
1777572199025,2327
1777572199027,2329
1777572199029,2339
1777572199031,2370
1777572199033,2402
1777572199035,2431
1777572199017,2421
1777572199019,2442
1777572199021,2415
1777572199023,2387
1777572199025,2373
1777572199027,2388
1777572199029,2400
1777572199031,2414
1777572199033,2429
1777572199035,2453
1777572199056,2466
1777572199058,2444
1777572199060,2406
1777572199062,2367
1777572199064,2356
1777572199066,2365
1777572199068,2403
1777572199070,2434
1777572199072,2462
1777572199074,2473
1777572199056,2464
1777572199058,2444
1777572199060,2413
1777572199062,2419
1777572199064,2404
1777572199066,2395
1777572199068,2394
1777572199070,2419
1777572199072,2444
1777572199074,2456
1777572199113,2452
1777572199115,2430
1777572199117,2392
1777572199119,2378
1777572199121,2373
1777572199123,2386
1777572199125,2401
1777572199127,2408
1777572199129,2420
1777572199131,2450
1777572199113,2469
1777572199115,2465
1777572199117,2455
1777572199119,2426
1777572199121,2413
1777572199123,2408
1777572199125,2450
1777572199127,2459
1777572199129,2474
1777572199131,2476
1777572199113,2465
1777572199115,2437
1777572199117,2395
1777572199119,2376
1777572199121,2355
1777572199123,2347
1777572199125,2364
1777572199127,2390
1777572199129,2411
1777572199131,2419
1777572199148,2417
1777572199150,2429
1777572199152,2439
1777572199154,2417
1777572199156,2386
1777572199158,2358
1777572199160,2346
1777572199162,2343
1777572199164,2396
1777572199166,2433
1777572199148,2435
1777572199150,2421
1777572199152,2404
1777572199154,2381
1777572199156,2362
1777572199158,2366
1777572199160,2393
1777572199162,2427
1777572199164,2456
1777572199166,2472
1777572199148,2468
1777572199150,2443
1777572199152,2420
1777572199154,2389
1777572199156,2355
1777572199158,2358
1777572199160,2372
1777572199162,2392
1777572199164,2411
1777572199166,2435
1777572199192,2424
1777572199194,2448
1777572199196,2408
1777572199198,2361
1777572199200,2328
1777572199202,2324
1777572199204,2333
1777572199206,2349
1777572199208,2373
1777572199210,2398
1777572199244,2413
1777572199246,2395
1777572199248,2364
1777572199250,2340
1777572199252,2332
1777572199254,2332
1777572199256,2349
1777572199258,2382
1777572199260,2423
1777572199262,2452
1777572199244,2451
1777572199246,2422
1777572199248,2376
1777572199250,2379
1777572199252,2376
1777572199254,2386
1777572199256,2404
1777572199258,2421
1777572199260,2450
1777572199262,2470
1777572199244,2492
1777572199246,2502
1777572199248,2475
1777572199250,2452
1777572199252,2420
1777572199254,2401
1777572199256,2425
1777572199258,2453
1777572199260,2479
1777572199262,2496
1777572199281,2491
1777572199283,2473
1777572199285,2441
1777572199287,2403
1777572199289,2382
1777572199291,2350
1777572199293,2400
1777572199295,2408
1777572199297,2406
1777572199299,2408
1777572199281,2398
1777572199283,2361
1777572199285,2311
1777572199287,2263
1777572199289,2255
1777572199291,2269
1777572199293,2290
1777572199295,2311
1777572199297,2329
1777572199299,2346
1777572199338,2362
1777572199340,2363
1777572199342,2337
1777572199344,2301
1777572199346,2272
1777572199348,2286
1777572199350,2325
1777572199352,2348
1777572199354,2408
1777572199356,2430
1777572199338,2412
1777572199340,2375
1777572199342,2335
1777572199344,2306
1777572199346,2280
1777572199348,2289
1777572199350,2322
1777572199352,2358
1777572199354,2391
1777572199356,2411
1777572199372,2419
1777572199374,2402
1777572199376,2375
1777572199378,2352
1777572199380,2337
1777572199382,2336
1777572199384,2365
1777572199386,2430
1777572199388,2483
1777572199390,2525
1777572199372,2544
1777572199374,2584
1777572199376,2560
1777572199378,2535
1777572199380,2565
1777572199382,2657
1777572199384,2752
1777572199386,2869
1777572199388,2988
1777572199390,3082
1777572199416,3165
1777572199418,3206
1777572199420,3207
1777572199422,3190
1777572199424,3149
1777572199426,3100
1777572199428,3045
1777572199430,2991
1777572199432,2930
1777572199434,2846
1777572199416,2736
1777572199418,2619
1777572199420,2485
1777572199422,2413
1777572199424,2327
1777572199426,2263
1777572199428,2238
1777572199430,2248
1777572199432,2276
1777572199434,2295
1777572199417,2296
1777572199419,2286
1777572199421,2269
1777572199423,2252
1777572199425,2235
1777572199427,2248
1777572199429,2291
1777572199431,2342
1777572199433,2373
1777572199435,2395
1777572199462,2410
1777572199464,2407
1777572199466,2386
1777572199468,2354
1777572199470,2340
1777572199472,2318
1777572199474,2376
1777572199476,2392
1777572199478,2410
1777572199480,2410
1777572199483,2400
1777572199485,2379
1777572199487,2356
1777572199489,2323
1777572199491,2303
1777572199493,2303
1777572199495,2317
1777572199497,2336
1777572199499,2357
1777572199501,2373
1777572199533,2379
1777572199535,2380
1777572199537,2363
1777572199539,2330
1777572199541,2314
1777572199543,2329
1777572199545,2350
1777572199547,2359
1777572199549,2418
1777572199551,2461
1777572199533,2484
1777572199535,2488
1777572199537,2464
1777572199539,2432
1777572199541,2404
1777572199543,2419
1777572199545,2447
1777572199547,2465
1777572199549,2490
1777572199551,2508
1777572199557,2520
1777572199559,2510
1777572199561,2490
1777572199563,2466
1777572199565,2458
1777572199567,2469
1777572199569,2487
1777572199571,2491
1777572199573,2491
1777572199575,2506
1777572199557,2528
1777572199559,2585
1777572199561,2571
1777572199563,2532
1777572199565,2500
1777572199567,2486
1777572199569,2485
1777572199571,2513
1777572199573,2534
1777572199575,2548
1777572199606,2554
1777572199608,2535
1777572199610,2508
1777572199612,2501
1777572199614,2495
1777572199616,2512
1777572199618,2539
1777572199620,2581
1777572199622,2634
1777572199624,2673
1777572199606,2695
1777572199608,2696
1777572199610,2664
1777572199612,2673
1777572199614,2657
1777572199616,2662
1777572199618,2693
1777572199620,2722
1777572199622,2751
1777572199624,2765
1777572199606,2767
1777572199608,2745
1777572199610,2718
1777572199612,2702
1777572199614,2698
1777572199616,2716
1777572199618,2742
1777572199620,2761
1777572199622,2767
1777572199624,2765
1777572199666,2757
1777572199668,2737
1777572199670,2721
1777572199672,2692
1777572199674,2662
1777572199676,2622
1777572199678,2661
1777572199680,2654
1777572199682,2633
1777572199684,2605
1777572199666,2565
1777572199668,2519
1777572199670,2452
1777572199672,2386
1777572199674,2349
1777572199676,2354
1777572199678,2367
1777572199680,2380
1777572199682,2384
1777572199684,2393
1777572199698,2392
1777572199700,2368
1777572199702,2331
1777572199704,2287
1777572199706,2253
1777572199708,2237
1777572199710,2235
1777572199712,2233
1777572199714,2306
1777572199716,2347
1777572199698,2353
1777572199700,2330
1777572199702,2284
1777572199704,2242
1777572199706,2228
1777572199708,2237
1777572199710,2246
1777572199712,2268
1777572199714,2289
1777572199716,2311
1777572199732,2310
1777572199734,2292
1777572199736,2257
1777572199738,2225
1777572199740,2206
1777572199742,2223
1777572199744,2249
1777572199746,2272
1777572199748,2293
1777572199750,2326
1777572199732,2317
1777572199734,2327
1777572199736,2303
1777572199738,2284
1777572199740,2267
1777572199742,2252
1777572199744,2261
1777572199746,2277
1777572199748,2288
1777572199750,2288
1777572199794,2265
1777572199796,2231
1777572199798,2208
1777572199800,2203
1777572199802,2212
1777572199804,2249
1777572199806,2288
1777572199808,2317
1777572199810,2340
1777572199812,2357
1777572199794,2362
1777572199796,2347
1777572199798,2304
1777572199800,2326
1777572199802,2326
1777572199804,2343
1777572199806,2352
1777572199808,2361
1777572199810,2372
1777572199812,2376
1777572199794,2373
1777572199796,2348
1777572199798,2309
1777572199800,2275
1777572199802,2277
1777572199804,2303
1777572199806,2336
1777572199808,2369
1777572199810,2403
1777572199812,2411
1777572199826,2405
1777572199828,2379
1777572199830,2361
1777572199832,2342
1777572199834,2330
1777572199836,2295
1777572199838,2345
1777572199840,2345
1777572199842,2356
1777572199844,2357
1777572199826,2336
1777572199828,2314
1777572199830,2283
1777572199832,2254
1777572199834,2235
1777572199836,2256
1777572199838,2281
1777572199840,2308
1777572199842,2340
1777572199844,2364
1777572199890,2387
1777572199892,2370
1777572199894,2333
1777572199896,2303
1777572199898,2288
1777572199900,2291
1777572199902,2319
1777572199904,2332
1777572199906,2387
1777572199908,2431
1777572199890,2436
1777572199892,2418
1777572199894,2374
1777572199896,2332
1777572199898,2294
1777572199900,2287
1777572199902,2302
1777572199904,2332
1777572199906,2363
1777572199908,2386
1777572199923,2391
1777572199925,2372
1777572199927,2349
1777572199929,2334
1777572199931,2320
1777572199933,2315
1777572199935,2334
1777572199937,2358
1777572199939,2361
1777572199941,2373
1777572199923,2357
1777572199925,2378
1777572199927,2346
1777572199929,2311
1777572199931,2288
1777572199933,2286
1777572199935,2312
1777572199937,2330
1777572199939,2346
1777572199941,2364
1777572199956,2376
1777572199958,2357
1777572199960,2326
1777572199962,2313
1777572199964,2310
1777572199966,2302
1777572199968,2303
1777572199970,2335
1777572199972,2379
1777572199974,2397
1777572199957,2388
1777572199959,2371
1777572199961,2326
1777572199963,2329
1777572199965,2315
1777572199967,2312
1777572199969,2315
1777572199971,2335
1777572199973,2358
1777572199975,2374
1777572199957,2363
1777572199959,2356
1777572199961,2345
1777572199963,2331
1777572199965,2317
1777572199967,2311
1777572199969,2325
1777572199971,2355
1777572199973,2375
1777572199975,2381
1777572200018,2384
1777572200020,2368
1777572200022,2340
1777572200024,2304
1777572200026,2288
1777572200028,2272
1777572200030,2348
1777572200032,2373
1777572200034,2387
1777572200036,2375
1777572200018,2336
1777572200020,2285
1777572200022,2241
1777572200024,2217
1777572200026,2221
1777572200028,2240
1777572200030,2259
1777572200032,2291
1777572200034,2320
1777572200036,2330
1777572200050,2328
1777572200052,2321
1777572200054,2297
1777572200056,2262
1777572200058,2254
1777572200060,2271
1777572200062,2293
1777572200064,2297
1777572200066,2334
1777572200068,2358
1777572200050,2363
1777572200052,2350
1777572200054,2328
1777572200056,2301
1777572200058,2282
1777572200060,2277
1777572200062,2296
1777572200064,2328
1777572200066,2354
1777572200068,2374
1777572200114,2367
1777572200116,2349
1777572200118,2334
1777572200120,2306
1777572200122,2293
1777572200124,2303
1777572200126,2337
1777572200128,2374
1777572200130,2383
1777572200132,2394
1777572200114,2382
1777572200116,2400
1777572200118,2359
1777572200120,2315
1777572200122,2288
1777572200124,2299
1777572200126,2319
1777572200128,2339
1777572200130,2356
1777572200132,2372
1777572200146,2375
1777572200148,2353
1777572200150,2325
1777572200152,2292
1777572200154,2274
1777572200156,2282
1777572200158,2318
1777572200160,2372
1777572200162,2407
1777572200164,2427
1777572200146,2425
1777572200148,2414
1777572200150,2379
1777572200152,2370
1777572200154,2374
1777572200156,2380
1777572200158,2387
1777572200160,2396
1777572200162,2394
1777572200164,2389
1777572200182,2382
1777572200184,2359
1777572200186,2323
1777572200188,2295
1777572200190,2282
1777572200192,2284
1777572200194,2301
1777572200196,2325
1777572200198,2359
1777572200200,2389
1777572200182,2396
1777572200184,2379
1777572200186,2337
1777572200188,2300
1777572200190,2305
1777572200192,2311
1777572200194,2359
1777572200196,2382
1777572200198,2395
1777572200200,2395
1777572200182,2381
1777572200184,2351
1777572200186,2321
1777572200188,2308
1777572200190,2312
1777572200192,2328
1777572200194,2351
1777572200196,2383
1777572200198,2409
1777572200200,2424
1777572200241,2438
1777572200243,2433
1777572200245,2407
1777572200247,2384
1777572200249,2374
1777572200251,2382
1777572200253,2399
1777572200255,2404
1777572200257,2441
1777572200259,2485
1777572200241,2480
1777572200243,2448
1777572200245,2411
1777572200247,2372
1777572200249,2342
1777572200251,2334
1777572200253,2348
1777572200255,2361
1777572200257,2373
1777572200259,2393
1777572200272,2392
1777572200274,2361
1777572200276,2334
1777572200278,2315
1777572200280,2314
1777572200282,2323
1777572200284,2347
1777572200286,2387
1777572200288,2413
1777572200290,2427
1777572200272,2417
1777572200274,2438
1777572200276,2395
1777572200278,2345
1777572200280,2312
1777572200282,2313
1777572200284,2320
1777572200286,2343
1777572200288,2371
1777572200290,2393
1777572200337,2390
1777572200339,2377
1777572200341,2356
1777572200343,2342
1777572200345,2330
1777572200347,2329
1777572200349,2342
1777572200351,2368
1777572200353,2375
1777572200355,2378
1777572200337,2367
1777572200339,2340
1777572200341,2297
1777572200343,2305
1777572200345,2311
1777572200347,2312
1777572200349,2319
1777572200351,2330
1777572200353,2343
1777572200355,2359
1777572200337,2355
1777572200339,2326
1777572200341,2282
1777572200343,2254
1777572200345,2236
1777572200347,2249
1777572200349,2278
1777572200351,2309
1777572200353,2334
1777572200355,2358
1777572200395,2366
1777572200397,2354
1777572200399,2322
1777572200401,2285
1777572200403,2273
1777572200405,2261
1777572200407,2323
1777572200409,2348
1777572200411,2357
1777572200413,2341
1777572200395,2314
1777572200397,2283
1777572200399,2258
1777572200401,2252
1777572200403,2265
1777572200405,2278
1777572200407,2313
1777572200409,2359
1777572200411,2421
1777572200413,2473
1777572200420,2524
1777572200422,2569
1777572200424,2613
1777572200426,2662
1777572200428,2731
1777572200430,2817
1777572200432,2917
1777572200434,3005
1777572200436,3097
1777572200438,3130
1777572200420,3102
1777572200422,3029
1777572200424,2940
1777572200426,2849
1777572200428,2765
1777572200430,2695
1777572200432,2630
1777572200434,2566
1777572200436,2518
1777572200438,2460
1777572200469,2380
1777572200471,2295
1777572200473,2231
1777572200475,2172
1777572200477,2133
1777572200479,2123
1777572200481,2142
1777572200483,2189
1777572200485,2211
1777572200487,2225
1777572200469,2224
1777572200471,2247
1777572200473,2219
1777572200475,2184
1777572200477,2163
1777572200479,2158
1777572200481,2182
1777572200483,2205
1777572200485,2213
1777572200487,2215
1777572200469,2200
1777572200471,2193
