timestamp_ms,ecg_raw
1776901236201,2161
1776901236203,2167
1776901236205,2170
1776901236207,2168
1776901236209,2161
1776901236211,2157
1776901236213,2154
1776901236215,2158
1776901236217,2162
1776901236219,2167
1776901236201,2167
1776901236203,2172
1776901236205,2172
1776901236207,2172
1776901236209,2165
1776901236211,2167
1776901236213,2167
1776901236215,2172
1776901236217,2175
1776901236219,2180
1776901236245,2187
1776901236247,2193
1776901236249,2195
1776901236251,2195
1776901236253,2194
1776901236255,2195
1776901236257,2200
1776901236259,2205
1776901236261,2206
1776901236263,2213
1776901236245,2215
1776901236247,2210
1776901236249,2210
1776901236251,2206
1776901236253,2207
1776901236255,2205
1776901236257,2207
1776901236259,2208
1776901236261,2212
1776901236263,2216
1776901236245,2217
1776901236247,2224
1776901236249,2227
1776901236251,2233
1776901236253,2238
1776901236255,2240
1776901236257,2249
1776901236259,2256
1776901236261,2265
1776901236263,2273
1776901236296,2280
1776901236298,2287
1776901236300,2287
1776901236302,2285
1776901236304,2282
1776901236306,2283
1776901236308,2284
1776901236310,2289
1776901236312,2293
1776901236314,2301
1776901236297,2304
1776901236299,2306
1776901236301,2308
1776901236303,2305
1776901236305,2303
1776901236307,2304
1776901236309,2307
1776901236311,2315
1776901236313,2320
1776901236315,2329
1776901236335,2333
1776901236337,2341
1776901236339,2343
1776901236341,2351
1776901236343,2347
1776901236345,2348
1776901236347,2350
1776901236349,2355
1776901236351,2360
1776901236353,2364
1776901236335,2367
1776901236337,2372
1776901236339,2372
1776901236341,2369
1776901236343,2369
1776901236345,2366
1776901236347,2367
1776901236349,2372
1776901236351,2378
1776901236353,2387
1776901236380,2387
1776901236382,2390
1776901236384,2388
1776901236386,2387
1776901236388,2387
1776901236390,2386
1776901236392,2388
1776901236394,2394
1776901236396,2400
1776901236398,2401
1776901236380,2404
1776901236382,2404
1776901236384,2400
1776901236386,2395
1776901236388,2387
1776901236390,2380
1776901236392,2377
1776901236394,2378
1776901236396,2375
1776901236398,2374
1776901236425,2373
1776901236427,2370
1776901236429,2367
1776901236431,2366
1776901236433,2364
1776901236435,2363
1776901236437,2364
1776901236439,2366
1776901236441,2365
1776901236443,2367
1776901236425,2366
1776901236427,2364
1776901236429,2361
1776901236431,2354
1776901236433,2348
1776901236435,2344
1776901236437,2339
1776901236439,2338
1776901236441,2337
1776901236443,2340
1776901236471,2340
1776901236473,2343
1776901236475,2344
1776901236477,2339
1776901236479,2338
1776901236481,2336
1776901236483,2337
1776901236485,2339
1776901236487,2343
1776901236489,2347
1776901236471,2348
1776901236473,2346
1776901236475,2346
1776901236477,2339
1776901236479,2331
1776901236481,2324
1776901236483,2323
1776901236485,2323
1776901236487,2325
1776901236489,2327
1776901236471,2327
1776901236473,2326
1776901236475,2324
1776901236477,2321
1776901236479,2317
1776901236481,2316
1776901236483,2316
1776901236485,2315
1776901236487,2319
1776901236489,2322
1776901236520,2324
1776901236522,2328
1776901236524,2333
1776901236526,2332
1776901236528,2333
1776901236530,2335
1776901236532,2335
1776901236534,2337
1776901236536,2336
1776901236538,2338
1776901236520,2338
1776901236522,2337
1776901236524,2334
1776901236526,2373
1776901236528,2326
1776901236530,2321
1776901236532,2320
1776901236534,2324
1776901236536,2332
1776901236538,2341
1776901236561,2347
1776901236563,2353
1776901236565,2359
1776901236567,2361
1776901236569,2361
1776901236571,2362
1776901236573,2364
1776901236575,2370
1776901236577,2375
1776901236579,2376
1776901236561,2374
1776901236563,2371
1776901236565,2363
1776901236567,2353
1776901236569,2346
1776901236571,2342
1776901236573,2341
1776901236575,2344
1776901236577,2348
1776901236579,2354
1776901236617,2360
1776901236619,2368
1776901236621,2375
1776901236623,2378
1776901236625,2380
1776901236627,2386
1776901236629,2392
1776901236631,2397
1776901236633,2396
1776901236635,2394
1776901236617,2386
1776901236619,2377
1776901236621,2367
1776901236623,2357
1776901236625,2352
1776901236627,2359
1776901236629,2372
1776901236631,2392
1776901236633,2413
1776901236635,2429
1776901236650,2442
1776901236652,2443
1776901236654,2441
1776901236656,2431
1776901236658,2419
1776901236660,2408
1776901236662,2395
1776901236664,2382
1776901236666,2371
1776901236668,2358
1776901236650,2349
1776901236652,2338
1776901236654,2329
1776901236656,2310
1776901236658,2310
1776901236660,2306
1776901236662,2304
1776901236664,2304
1776901236666,2304
1776901236668,2302
1776901236650,2300
1776901236652,2305
1776901236654,2304
1776901236656,2300
1776901236658,2290
1776901236660,2284
1776901236662,2281
1776901236664,2282
1776901236666,2284
1776901236668,2287
1776901236695,2290
1776901236697,2292
1776901236699,2292
1776901236701,2290
1776901236703,2289
1776901236705,2289
1776901236707,2291
1776901236709,2290
1776901236711,2294
1776901236713,2298
1776901236695,2301
1776901236697,2302
1776901236699,2305
1776901236701,2302
1776901236703,2299
1776901236705,2297
1776901236707,2297
1776901236709,2298
1776901236711,2304
1776901236713,2308
1776901236745,2314
1776901236747,2319
1776901236749,2317
1776901236751,2317
1776901236753,2316
1776901236755,2311
1776901236757,2316
1776901236759,2316
1776901236761,2314
1776901236763,2301
1776901236745,2280
1776901236747,2259
1776901236749,2241
1776901236751,2223
1776901236753,2206
1776901236755,2195
1776901236757,2193
1776901236759,2203
1776901236761,2234
1776901236763,2294
1776901236785,2395
1776901236787,2536
1776901236789,2699
1776901236791,2865
1776901236793,3013
1776901236795,3134
1776901236797,3220
1776901236799,3249
1776901236801,3223
1776901236803,3167
1776901236841,3108
1776901236843,3067
1776901236845,3039
1776901236847,3007
1776901236849,2978
1776901236851,2966
1776901236853,2970
1776901236855,2970
1776901236857,2950
1776901236859,2899
1776901236841,2832
1776901236843,2773
1776901236845,2733
1776901236847,2701
1776901236849,2676
1776901236851,2649
1776901236853,2622
1776901236855,2590
1776901236857,2540
1776901236859,2488
1776901236841,2435
1776901236843,2393
1776901236845,2353
1776901236847,2315
1776901236849,2278
1776901236851,2241
1776901236853,2214
1776901236855,2197
1776901236857,2186
1776901236859,2186
1776901236841,2188
1776901236843,2192
1776901236845,2196
1776901236847,2197
1776901236849,2200
1776901236851,2206
1776901236853,2214
1776901236855,2219
1776901236857,2226
1776901236859,2229
1776901236876,2232
1776901236878,2236
1776901236880,2236
1776901236882,2236
1776901236884,2233
1776901236886,2235
1776901236888,2241
1776901236890,2244
1776901236892,2252
1776901236894,2260
1776901236876,2262
1776901236878,2266
1776901236880,2264
1776901236882,2269
1776901236884,2259
1776901236886,2262
1776901236888,2264
1776901236890,2270
1776901236892,2274
1776901236894,2278
1776901236923,2278
1776901236925,2276
1776901236927,2269
1776901236929,2265
1776901236931,2262
1776901236933,2260
1776901236935,2258
1776901236937,2256
1776901236939,2257
1776901236941,2257
1776901236923,2258
1776901236925,2266
1776901236927,2272
1776901236929,2274
1776901236931,2277
1776901236933,2282
1776901236935,2285
1776901236937,2289
1776901236939,2295
1776901236941,2300
1776901236973,2306
1776901236975,2307
1776901236977,2308
1776901236979,2315
1776901236981,2306
1776901236983,2310
1776901236985,2319
1776901236987,2333
1776901236989,2339
1776901236991,2348
1776901236973,2352
1776901236975,2350
1776901236977,2351
1776901236979,2347
1776901236981,2344
1776901236983,2346
1776901236985,2354
1776901236987,2364
1776901236989,2371
1776901236991,2380
1776901236973,2385
1776901236975,2391
1776901236977,2397
1776901236979,2398
1776901236981,2402
1776901236983,2408
1776901236985,2416
1776901236987,2425
1776901236989,2430
1776901236991,2434
1776901237011,2432
1776901237013,2431
1776901237015,2424
1776901237017,2415
1776901237019,2410
1776901237021,2410
1776901237023,2408
1776901237025,2406
1776901237027,2408
1776901237029,2410
1776901237011,2410
1776901237013,2408
1776901237015,2408
1776901237017,2405
1776901237019,2401
1776901237021,2399
1776901237023,2402
1776901237025,2407
1776901237027,2411
1776901237029,2414
1776901237067,2416
1776901237069,2421
1776901237071,2422
1776901237073,2427
1776901237075,2414
1776901237077,2409
1776901237079,2405
1776901237081,2405
1776901237083,2407
1776901237085,2405
1776901237067,2403
1776901237069,2403
1776901237071,2398
1776901237073,2397
1776901237075,2397
1776901237077,2399
1776901237079,2399
1776901237081,2401
1776901237083,2402
1776901237085,2402
1776901237101,2399
1776901237103,2400
1776901237105,2398
1776901237107,2395
1776901237109,2393
1776901237111,2392
1776901237113,2391
1776901237115,2394
1776901237117,2395
1776901237119,2395
1776901237101,2397
1776901237103,2396
1776901237105,2399
1776901237107,2400
1776901237109,2402
1776901237111,2406
1776901237113,2409
1776901237115,2412
1776901237117,2411
1776901237119,2412
1776901237145,2410
1776901237147,2407
1776901237149,2404
1776901237151,2398
1776901237153,2395
1776901237155,2395
1776901237157,2398
1776901237159,2406
1776901237161,2411
1776901237163,2417
1776901237145,2418
1776901237147,2420
1776901237149,2414
1776901237151,2410
1776901237153,2410
1776901237155,2414
1776901237157,2420
1776901237159,2427
1776901237161,2431
1776901237163,2433
1776901237195,2431
1776901237197,2432
1776901237199,2426
1776901237201,2418
1776901237203,2416
1776901237205,2416
1776901237207,2419
1776901237209,2424
1776901237211,2429
1776901237213,2434
1776901237195,2436
1776901237197,2430
1776901237199,2427
1776901237201,2424
1776901237203,2420
1776901237205,2421
1776901237207,2421
1776901237209,2425
1776901237211,2424
1776901237213,2422
1776901237195,2421
1776901237197,2418
1776901237199,2415
1776901237201,2408
1776901237203,2405
1776901237205,2404
1776901237207,2405
1776901237209,2406
1776901237211,2407
1776901237213,2408
1776901237235,2409
1776901237237,2406
1776901237239,2400
1776901237241,2392
1776901237243,2388
1776901237245,2385
1776901237247,2381
1776901237249,2385
1776901237251,2382
1776901237253,2381
1776901237235,2382
1776901237237,2384
1776901237239,2385
1776901237241,2423
1776901237243,2375
1776901237245,2370
1776901237247,2365
1776901237249,2362
1776901237251,2361
1776901237253,2363
1776901237291,2364
1776901237293,2369
1776901237295,2374
1776901237297,2377
1776901237299,2383
1776901237301,2391
1776901237303,2401
1776901237305,2407
1776901237307,2414
1776901237309,2418
1776901237325,2416
1776901237327,2411
1776901237329,2405
1776901237331,2400
1776901237333,2397
1776901237335,2403
1776901237337,2419
1776901237339,2439
1776901237341,2462
1776901237343,2483
1776901237325,2498
1776901237327,2506
1776901237329,2502
1776901237331,2492
1776901237333,2481
1776901237335,2466
1776901237337,2454
1776901237339,2442
1776901237341,2432
1776901237343,2423
1776901237325,2409
1776901237327,2400
1776901237329,2389
1776901237331,2378
1776901237333,2374
1776901237335,2372
1776901237337,2375
1776901237339,2377
1776901237341,2377
1776901237343,2373
1776901237325,2372
1776901237327,2366
1776901237329,2371
1776901237331,2367
1776901237333,2362
1776901237335,2360
1776901237337,2359
1776901237339,2356
1776901237341,2356
1776901237343,2360
1776901237370,2358
1776901237372,2356
1776901237374,2351
1776901237376,2345
1776901237378,2340
1776901237380,2338
1776901237382,2338
1776901237384,2343
1776901237386,2348
1776901237388,2349
1776901237370,2349
1776901237372,2350
1776901237374,2347
1776901237376,2340
1776901237378,2337
1776901237380,2340
1776901237382,2342
1776901237384,2347
1776901237386,2352
1776901237388,2358
1776901237420,2359
1776901237422,2362
1776901237424,2358
1776901237426,2353
1776901237428,2348
1776901237430,2346
1776901237432,2347
1776901237434,2347
1776901237436,2346
1776901237438,2341
1776901237420,2325
1776901237422,2301
1776901237424,2281
1776901237426,2261
1776901237428,2245
1776901237430,2236
1776901237432,2235
1776901237434,2234
1776901237436,2242
1776901237438,2271
1776901237460,2325
1776901237462,2417
1776901237464,2542
1776901237466,2698
1776901237468,2861
1776901237470,3020
1776901237472,3157
1776901237474,3248
1776901237476,3291
1776901237478,3277
1776901237460,3223
1776901237462,3157
1776901237464,3085
1776901237466,3019
1776901237468,2951
1776901237470,2888
1776901237472,2850
1776901237474,2840
1776901237476,2850
1776901237478,2859
1776901237516,2844
1776901237518,2796
1776901237520,2741
1776901237522,2697
1776901237524,2668
1776901237526,2645
1776901237528,2623
1776901237530,2600
1776901237532,2572
1776901237534,2528
1776901237517,2479
1776901237519,2422
1776901237521,2379
1776901237523,2338
1776901237525,2309
1776901237527,2282
1776901237529,2252
1776901237531,2220
1776901237533,2197
1776901237535,2181
1776901237517,2169
1776901237519,2167
1776901237521,2168
1776901237523,2169
1776901237525,2171
1776901237527,2177
1776901237529,2185
1776901237531,2192
1776901237533,2198
1776901237535,2202
1776901237550,2204
1776901237552,2209
1776901237554,2214
1776901237556,2212
1776901237558,2216
1776901237560,2222
1776901237562,2230
1776901237564,2240
1776901237566,2249
1776901237568,2259
1776901237550,2263
1776901237552,2267
1776901237554,2266
1776901237556,2267
1776901237558,2270
1776901237560,2272
1776901237562,2278
1776901237564,2278
1776901237566,2282
1776901237568,2283
1776901237595,2288
1776901237597,2286
1776901237599,2284
1776901237601,2293
1776901237603,2280
1776901237605,2279
1776901237607,2279
1776901237609,2277
1776901237611,2283
1776901237613,2288
1776901237595,2290
1776901237597,2288
1776901237599,2290
1776901237601,2289
1776901237603,2284
1776901237605,2287
1776901237607,2290
1776901237609,2293
1776901237611,2295
1776901237613,2299
1776901237644,2302
1776901237646,2302
1776901237648,2305
1776901237650,2306
1776901237652,2308
1776901237654,2310
1776901237656,2312
1776901237658,2318
1776901237660,2320
1776901237662,2325
1776901237644,2326
1776901237646,2331
1776901237648,2331
1776901237650,2331
1776901237652,2332
1776901237654,2336
1776901237656,2340
1776901237658,2347
1776901237660,2354
1776901237662,2353
1776901237685,2355
1776901237687,2352
1776901237689,2350
1776901237691,2344
1776901237693,2341
1776901237695,2339
1776901237697,2342
1776901237699,2341
1776901237701,2337
1776901237703,2340
1776901237685,2335
1776901237687,2327
1776901237689,2323
1776901237691,2322
1776901237693,2319
1776901237695,2323
1776901237697,2328
1776901237699,2337
1776901237701,2343
1776901237703,2350
1776901237685,2354
1776901237687,2353
1776901237689,2350
1776901237691,2347
1776901237693,2345
1776901237695,2347
1776901237697,2351
1776901237699,2353
1776901237701,2355
1776901237703,2354
1776901237739,2353
1776901237741,2349
1776901237743,2345
1776901237745,2340
1776901237747,2337
1776901237749,2340
1776901237751,2348
1776901237753,2353
1776901237755,2362
1776901237757,2369
1776901237739,2372
1776901237741,2372
1776901237743,2369
1776901237745,2363
1776901237747,2361
1776901237749,2362
1776901237751,2363
1776901237753,2365
1776901237755,2368
1776901237757,2375
1776901237776,2376
1776901237778,2377
1776901237780,2377
1776901237782,2381
1776901237784,2374
1776901237786,2377
1776901237788,2379
1776901237790,2381
1776901237792,2381
1776901237794,2381
1776901237776,2385
1776901237778,2384
1776901237780,2384
1776901237782,2383
1776901237784,2383
1776901237786,2385
1776901237788,2384
1776901237790,2386
1776901237792,2389
1776901237794,2390
1776901237836,2390
1776901237838,2387
1776901237840,2383
1776901237842,2381
1776901237844,2384
1776901237846,2386
1776901237848,2389
1776901237850,2389
1776901237852,2391
1776901237854,2392
1776901237836,2392
1776901237838,2387
1776901237840,2386
1776901237842,2385
1776901237844,2386
1776901237846,2389
1776901237848,2390
1776901237850,2390
1776901237852,2393
1776901237854,2392
1776901237868,2390
1776901237870,2392
1776901237872,2389
1776901237874,2388
1776901237876,2386
1776901237878,2388
1776901237880,2386
1776901237882,2386
1776901237884,2382
1776901237886,2384
1776901237868,2381
1776901237870,2376
1776901237872,2377
1776901237874,2373
1776901237876,2374
1776901237878,2375
1776901237880,2377
1776901237882,2380
1776901237884,2379
1776901237886,2378
1776901237910,2375
1776901237912,2375
1776901237914,2375
1776901237916,2378
1776901237918,2383
1776901237920,2393
1776901237922,2398
1776901237924,2400
1776901237926,2406
1776901237928,2406
1776901237910,2400
1776901237912,2398
1776901237914,2397
1776901237916,2394
1776901237918,2393
1776901237920,2394
1776901237922,2395
1776901237924,2398
1776901237926,2402
1776901237928,2404
1776901237910,2401
1776901237912,2399
1776901237914,2395
1776901237916,2391
1776901237918,2390
1776901237920,2391
1776901237922,2393
1776901237924,2394
1776901237926,2394
1776901237928,2394
1776901237963,2389
1776901237965,2386
1776901237967,2381
1776901237969,2377
1776901237971,2374
1776901237973,2378
1776901237975,2378
1776901237977,2378
1776901237979,2384
1776901237981,2392
1776901237963,2395
1776901237965,2408
1776901237967,2414
1776901237969,2423
1776901237971,2432
1776901237973,2446
1776901237975,2460
1776901237977,2470
1776901237979,2478
1776901237981,2481
1776901238001,2480
1776901238003,2474
1776901238005,2470
1776901238007,2469
1776901238009,2472
1776901238011,2483
1776901238013,2500
1776901238015,2519
1776901238017,2538
1776901238019,2546
1776901238001,2549
1776901238003,2545
1776901238005,2537
1776901238007,2531
1776901238009,2519
1776901238011,2510
1776901238013,2497
1776901238015,2484
1776901238017,2474
1776901238019,2463
1776901238060,2450
1776901238062,2441
1776901238064,2430
1776901238066,2425
1776901238068,2418
1776901238070,2416
1776901238072,2416
1776901238074,2412
1776901238076,2406
1776901238078,2400
1776901238060,2394
1776901238062,2391
1776901238064,2386
1776901238066,2377
1776901238068,2378
1776901238070,2378
1776901238072,2379
1776901238074,2380
1776901238076,2382
1776901238078,2379
1776901238092,2380
1776901238094,2378
1776901238096,2377
1776901238098,2374
1776901238100,2372
1776901238102,2373
1776901238104,2375
1776901238106,2369
1776901238108,2368
1776901238110,2369
1776901238092,2369
1776901238094,2365
1776901238096,2365
1776901238098,2363
1776901238100,2362
1776901238102,2366
1776901238104,2368
1776901238106,2371
1776901238108,2376
1776901238110,2378
1776901238092,2375
1776901238094,2376
1776901238096,2373
1776901238098,2374
1776901238100,2375
1776901238102,2378
1776901238104,2377
1776901238106,2377
1776901238108,2369
1776901238110,2350
1776901238135,2323
1776901238137,2296
1776901238139,2272
1776901238141,2256
1776901238143,2246
1776901238145,2240
1776901238147,2242
1776901238149,2247
1776901238151,2268
1776901238153,2324
1776901238135,2413
1776901238137,2532
1776901238139,2690
1776901238141,2857
1776901238143,3016
1776901238145,3156
1776901238147,3269
1776901238149,3330
1776901238151,3331
1776901238153,3292
1776901238189,3256
1776901238191,3233
1776901238193,3220
1776901238195,3202
1776901238197,3194
1776901238199,3195
1776901238201,3195
1776901238203,3172
1776901238205,3109
1776901238207,3021
1776901238189,2933
1776901238191,2863
1776901238193,2813
1776901238195,2780
1776901238197,2762
1776901238199,2744
1776901238201,2716
1776901238203,2673
1776901238205,2626
1776901238207,2573
1776901238225,2515
1776901238227,2454
1776901238229,2386
1776901238231,2318
1776901238233,2259
1776901238235,2218
1776901238237,2190
1776901238239,2177
1776901238241,2174
1776901238243,2176
1776901238225,2178
1776901238227,2177
1776901238229,2181
1776901238231,2183
1776901238233,2189
1776901238235,2194
1776901238237,2197
1776901238239,2203
1776901238241,2207
1776901238243,2210
1776901238225,2212
1776901238227,2210
1776901238229,2206
1776901238231,2206
1776901238233,2211
1776901238235,2215
1776901238237,2218
1776901238239,2221
1776901238241,2225
1776901238243,2232
1776901238283,2237
1776901238285,2237
1776901238287,2238
1776901238289,2233
1776901238291,2232
1776901238293,2233
1776901238295,2231
1776901238297,2233
1776901238299,2232
1776901238301,2234
1776901238283,2232
1776901238285,2235
1776901238287,2236
1776901238289,2237
1776901238291,2239
1776901238293,2240
1776901238295,2244
1776901238297,2246
1776901238299,2252
1776901238301,2260
1776901238360,2267
1776901238362,2271
1776901238364,2275
1776901238366,2290
1776901238368,2288
1776901238370,2296
1776901238372,2308
1776901238374,2322
1776901238376,2333
1776901238378,2344
1776901238360,2349
1776901238362,2351
1776901238364,2354
1776901238366,2357
1776901238368,2358
1776901238370,2365
1776901238372,2371
1776901238374,2377
1776901238376,2382
1776901238378,2384
1776901238360,2388
1776901238362,2392
1776901238364,2396
1776901238366,2403
1776901238368,2417
1776901238370,2430
1776901238372,2442
1776901238374,2451
1776901238376,2460
1776901238378,2464
1776901238360,2469
1776901238362,2471
1776901238364,2474
1776901238366,2479
1776901238368,2487
1776901238370,2495
1776901238372,2504
1776901238374,2515
1776901238376,2523
1776901238378,2527
1776901238412,2534
1776901238414,2535
1776901238416,2538
1776901238418,2542
1776901238420,2551
1776901238422,2564
1776901238424,2577
1776901238426,2594
1776901238428,2602
1776901238430,2607
1776901238412,2606
1776901238414,2607
1776901238416,2609
1776901238418,2610
1776901238420,2624
1776901238422,2636
1776901238424,2649
1776901238426,2660
1776901238428,2673
1776901238430,2682
1776901238412,2688
1776901238414,2693
1776901238416,2696
1776901238418,2710
1776901238420,2703
1776901238422,2712
1776901238424,2716
1776901238426,2719
1776901238428,2726
1776901238430,2726
1776901238461,2726
1776901238463,2728
1776901238465,2730
1776901238467,2736
1776901238469,2741
1776901238471,2748
1776901238473,2752
1776901238475,2755
1776901238477,2755
1776901238479,2759
1776901238461,2758
1776901238463,2757
1776901238465,2759
1776901238467,2759
1776901238469,2764
1776901238471,2771
1776901238473,2776
1776901238475,2779
1776901238477,2783
1776901238479,2782
1776901238507,2781
1776901238509,2779
1776901238511,2781
1776901238513,2779
1776901238515,2781
1776901238517,2781
1776901238519,2784
1776901238521,2788
1776901238523,2792
1776901238525,2793
1776901238507,2791
1776901238509,2786
1776901238511,2782
1776901238513,2779
1776901238515,2778
1776901238517,2774
1776901238519,2771
1776901238521,2769
1776901238523,2765
1776901238525,2761
1776901238556,2753
1776901238558,2749
1776901238560,2740
1776901238562,2734
1776901238564,2729
1776901238566,2724
1776901238568,2716
1776901238570,2708
1776901238572,2698
1776901238574,2687
1776901238556,2675
1776901238558,2656
1776901238560,2646
1776901238562,2634
1776901238564,2626
1776901238566,2619
1776901238568,2613
1776901238570,2608
1776901238572,2602
1776901238574,2595
1776901238589,2584
1776901238591,2568
1776901238593,2557
1776901238595,2548
1776901238597,2544
1776901238599,2543
1776901238601,2543
1776901238603,2540
1776901238605,2541
1776901238607,2536
1776901238589,2524
1776901238591,2513
1776901238593,2504
1776901238595,2494
1776901238597,2486
1776901238599,2483
1776901238601,2478
1776901238603,2475
1776901238605,2472
1776901238607,2464
1776901238656,2458
1776901238658,2455
1776901238660,2447
1776901238662,2443
1776901238664,2440
1776901238666,2436
1776901238668,2433
1776901238670,2428
1776901238672,2420
1776901238674,2413
1776901238656,2404
1776901238658,2391
1776901238660,2380
1776901238662,2372
1776901238664,2367
1776901238666,2362
1776901238668,2359
1776901238670,2360
1776901238672,2361
1776901238674,2355
1776901238656,2351
1776901238658,2346
1776901238660,2338
1776901238662,2333
1776901238664,2333
1776901238666,2335
1776901238668,2335
1776901238670,2337
1776901238672,2338
1776901238674,2340
1776901238689,2342
1776901238691,2339
1776901238693,2341
1776901238695,2340
1776901238697,2346
1776901238699,2351
1776901238701,2352
1776901238703,2353
1776901238705,2349
1776901238707,2346
1776901238689,2333
1776901238691,2324
1776901238693,2316
1776901238695,2360
1776901238697,2321
1776901238699,2336
1776901238701,2356
1776901238703,2380
1776901238705,2396
1776901238707,2404
1776901238733,2403
1776901238735,2397
1776901238737,2389
1776901238739,2379
1776901238741,2366
1776901238743,2353
1776901238745,2341
1776901238747,2326
1776901238749,2317
1776901238751,2302
1776901238733,2285
1776901238735,2270
1776901238737,2258
1776901238739,2253
1776901238741,2249
1776901238743,2251
1776901238745,2252
1776901238747,2251
1776901238749,2246
1776901238751,2243
1776901238765,2238
1776901238767,2232
1776901238769,2222
1776901238771,2215
1776901238773,2207
1776901238775,2198
1776901238777,2197
1776901238779,2194
1776901238781,2193
1776901238783,2192
1776901238765,2190
1776901238767,2186
1776901238769,2177
1776901238771,2172
1776901238773,2170
1776901238775,2170
1776901238777,2170
1776901238779,2168
1776901238781,2169
1776901238783,2168
1776901238765,2161
1776901238767,2155
1776901238769,2149
1776901238771,2148
1776901238773,2149
1776901238775,2153
1776901238777,2154
1776901238779,2155
1776901238781,2152
1776901238783,2153
1776901238810,2151
1776901238812,2147
1776901238814,2143
1776901238816,2141
1776901238818,2141
1776901238820,2141
1776901238822,2139
1776901238824,2135
1776901238826,2122
1776901238828,2102
1776901238810,2068
1776901238812,2040
1776901238814,2017
1776901238816,2004
1776901238818,1996
1776901238820,1994
1776901238822,1995
1776901238824,2010
1776901238826,2052
1776901238828,2131
1776901238900,2242
1776901238902,2388
1776901238904,2551
1776901238906,2715
1776901238908,2847
1776901238910,2957
1776901238912,3030
1776901238914,3045
1776901238916,3012
1776901238918,2974
1776901238900,2946
1776901238902,2928
1776901238904,2917
1776901238906,2906
1776901238908,2905
1776901238910,2910
1776901238912,2907
1776901238914,2872
1776901238916,2805
1776901238918,2730
1776901238900,2659
1776901238902,2609
1776901238904,2574
1776901238906,2551
1776901238908,2527
1776901238910,2494
1776901238912,2449
1776901238914,2398
1776901238916,2343
1776901238918,2291
1776901238900,2232
1776901238902,2172
1776901238904,2109
1776901238906,2051
1776901238908,2006
1776901238910,1974
1776901238912,1955
1776901238914,1946
1776901238916,1944
1776901238918,1947
1776901238953,1947
1776901238955,1952
1776901238957,1958
1776901238959,1961
1776901238961,1968
1776901238963,1973
1776901238965,1973
1776901238967,1972
1776901238969,1971
1776901238971,1968
1776901238953,1964
1776901238955,1961
1776901238957,1958
1776901238959,1958
1776901238961,1960
1776901238963,1965
1776901238965,1968
1776901238967,1975
1776901238969,1980
1776901238971,1983
1776901238953,1981
1776901238955,1979
1776901238957,1983
1776901238959,1989
1776901238961,1996
1776901238963,2003
1776901238965,2009
1776901238967,2013
1776901238969,2017
1776901238971,2018
1776901238990,2015
1776901238992,2010
1776901238994,2007
1776901238996,2007
1776901238998,2004
1776901239000,2007
1776901239002,2013
1776901239004,2021
1776901239006,2027
1776901239008,2033
1776901238990,2039
1776901238992,2044
1776901238994,2053
1776901238996,2052
1776901238998,2071
1776901239000,2079
1776901239002,2087
1776901239004,2093
1776901239006,2098
1776901239008,2100
1776901239035,2101
1776901239037,2098
1776901239039,2101
1776901239041,2116
1776901239043,2114
1776901239045,2123
1776901239047,2129
1776901239049,2134
1776901239051,2140
1776901239053,2141
1776901239035,2142
1776901239037,2145
1776901239039,2147
1776901239041,2147
1776901239043,2150
1776901239045,2154
1776901239047,2159
1776901239049,2164
1776901239051,2169
1776901239053,2168
1776901239081,2168
1776901239083,2165
1776901239085,2166
1776901239087,2171
1776901239089,2173
1776901239091,2180
1776901239093,2182
1776901239095,2188
1776901239097,2191
1776901239099,2190
1776901239081,2186
1776901239083,2185
1776901239085,2187
1776901239087,2187
1776901239089,2189
1776901239091,2192
1776901239093,2197
1776901239095,2199
1776901239097,2198
1776901239099,2199
1776901239126,2194
1776901239128,2187
1776901239130,2186
1776901239132,2188
1776901239134,2190
1776901239136,2195
1776901239138,2201
1776901239140,2205
1776901239142,2204
1776901239144,2212
1776901239126,2207
1776901239128,2203
1776901239130,2205
1776901239132,2205
1776901239134,2206
1776901239136,2211
1776901239138,2213
1776901239140,2218
1776901239142,2220
1776901239144,2222
1776901239126,2217
1776901239128,2214
1776901239130,2212
1776901239132,2212
1776901239134,2214
1776901239136,2217
1776901239138,2218
1776901239140,2223
1776901239142,2222
1776901239144,2217
1776901239177,2213
1776901239179,2213
1776901239181,2216
1776901239183,2218
1776901239185,2219
1776901239187,2222
1776901239189,2228
1776901239191,2232
1776901239193,2232
1776901239195,2231
1776901239177,2228
1776901239179,2219
1776901239181,2217
1776901239183,2215
1776901239185,2216
1776901239187,2215
1776901239189,2217
1776901239191,2219
1776901239193,2219
1776901239195,2216
1776901239216,2209
1776901239218,2204
1776901239220,2199
1776901239222,2205
1776901239224,2197
1776901239226,2198
1776901239228,2197
1776901239230,2197
1776901239232,2195
1776901239234,2191
1776901239216,2183
1776901239218,2178
1776901239220,2172
1776901239222,2168
1776901239224,2169
1776901239226,2172
1776901239228,2176
1776901239230,2180
1776901239232,2185
1776901239234,2184
1776901239260,2180
1776901239262,2176
1776901239264,2174
1776901239266,2172
1776901239268,2174
1776901239270,2171
1776901239272,2162
1776901239274,2160
1776901239276,2156
1776901239278,2153
1776901239260,2151
1776901239262,2148
1776901239264,2152
1776901239266,2154
1776901239268,2157
1776901239270,2161
1776901239272,2163
1776901239274,2163
1776901239276,2161
1776901239278,2156
1776901239305,2149
1776901239307,2144
1776901239309,2142
1776901239311,2142
1776901239313,2144
1776901239315,2143
1776901239317,2143
1776901239319,2139
1776901239321,2132
1776901239323,2123
1776901239305,2114
1776901239307,2106
1776901239309,2101
1776901239311,2102
1776901239313,2105
1776901239315,2114
1776901239317,2118
1776901239319,2122
1776901239321,2122
1776901239323,2120
1776901239351,2113
1776901239353,2105
1776901239355,2100
1776901239357,2099
1776901239359,2099
1776901239361,2097
1776901239363,2103
1776901239365,2104
1776901239367,2105
1776901239369,2103
1776901239351,2101
1776901239353,2096
1776901239355,2096
1776901239357,2097
1776901239359,2098
1776901239361,2098
1776901239363,2097
1776901239365,2094
1776901239367,2092
1776901239369,2088
1776901239351,2084
1776901239353,2082
1776901239355,2086
1776901239357,2093
1776901239359,2104
1776901239361,2114
1776901239363,2122
1776901239365,2127
1776901239367,2132
1776901239369,2133
1776901239401,2131
1776901239403,2128
1776901239405,2122
1776901239407,2111
1776901239409,2105
1776901239411,2090
1776901239413,2072
1776901239415,2059
1776901239417,2054
1776901239419,2060
1776901239401,2068
1776901239403,2087
1776901239405,2109
1776901239407,2170
1776901239409,2137
1776901239411,2142
1776901239413,2137
1776901239415,2133
1776901239417,2116
1776901239419,2101
1776901239440,2081
1776901239442,2065
1776901239444,2052
1776901239446,2042
1776901239448,2033
1776901239450,2028
1776901239452,2022
1776901239454,2020
1776901239456,2013
1776901239458,2004
1776901239440,1991
1776901239442,1974
1776901239444,1968
1776901239446,1960
1776901239448,1958
1776901239450,1957
1776901239452,1957
1776901239454,1956
1776901239456,1952
1776901239458,1946
1776901239496,1941
1776901239498,1934
1776901239500,1934
1776901239502,1931
1776901239504,1931
1776901239506,1931
1776901239508,1929
1776901239510,1930
1776901239512,1926
1776901239514,1921
1776901239496,1908
1776901239498,1902
1776901239500,1897
1776901239502,1891
1776901239504,1889
1776901239506,1887
1776901239508,1886
1776901239510,1888
1776901239512,1891
1776901239514,1892
1776901239496,1887
1776901239498,1884
1776901239500,1884
1776901239502,1890
1776901239504,1889
1776901239506,1892
1776901239508,1896
1776901239510,1898
1776901239512,1899
1776901239514,1901
1776901239541,1896
1776901239543,1887
1776901239545,1870
1776901239547,1850
1776901239549,1827
1776901239551,1806
1776901239553,1791
1776901239555,1783
1776901239557,1774
1776901239559,1768
1776901239541,1768
1776901239543,1788
1776901239545,1840
1776901239547,1926
1776901239549,2049
1776901239551,2208
1776901239553,2381
1776901239555,2536
1776901239557,2670
1776901239559,2766
1776901239575,2811
1776901239577,2801
1776901239579,2754
1776901239581,2704
1776901239583,2655
1776901239585,2626
1776901239587,2595
1776901239589,2563
1776901239591,2544
1776901239593,2538
1776901239575,2535
1776901239577,2513
1776901239579,2467
1776901239581,2394
1776901239583,2325
1776901239585,2275
1776901239587,2240
1776901239589,2215
1776901239591,2193
1776901239593,2164
1776901239625,2127
1776901239627,2081
1776901239629,2023
1776901239631,1969
1776901239633,1921
1776901239635,1878
1776901239637,1831
1776901239639,1788
1776901239641,1747
1776901239643,1709
1776901239625,1676
1776901239627,1657
1776901239629,1647
1776901239631,1645
1776901239633,1652
1776901239635,1656
1776901239637,1663
1776901239639,1665
1776901239641,1662
1776901239643,1658
1776901239670,1650
1776901239672,1645
1776901239674,1643
1776901239676,1647
1776901239678,1651
1776901239680,1656
1776901239682,1659
1776901239684,1664
1776901239686,1666
1776901239688,1669
1776901239670,1669
1776901239672,1668
1776901239674,1671
1776901239676,1672
1776901239678,1675
1776901239680,1678
1776901239682,1679
1776901239684,1679
1776901239686,1681
1776901239688,1680
1776901239670,1678
1776901239672,1678
1776901239674,1681
1776901239676,1686
1776901239678,1690
1776901239680,1692
1776901239682,1695
1776901239684,1697
1776901239686,1699
1776901239688,1704
1776901239722,1701
1776901239724,1706
1776901239726,1708
1776901239728,1712
1776901239730,1719
1776901239732,1724
1776901239734,1734
1776901239736,1741
1776901239738,1746
1776901239740,1748
1776901239722,1751
1776901239724,1760
1776901239726,1766
1776901239728,1771
1776901239730,1779
1776901239732,1785
1776901239734,1788
1776901239736,1794
1776901239738,1796
1776901239740,1796
1776901239756,1794
1776901239758,1793
1776901239760,1802
1776901239762,1818
1776901239764,1810
1776901239766,1812
1776901239768,1814
1776901239770,1816
1776901239772,1819
1776901239774,1819
1776901239756,1820
1776901239758,1819
1776901239760,1826
1776901239762,1835
1776901239764,1842
1776901239766,1851
1776901239768,1860
1776901239770,1869
1776901239772,1874
1776901239774,1879
1776901239800,1881
1776901239802,1890
1776901239804,1898
1776901239806,1903
1776901239808,1907
1776901239810,1914
1776901239812,1916
1776901239814,1918
1776901239816,1921
1776901239818,1921
1776901239800,1924
1776901239802,1932
1776901239804,1938
1776901239806,1948
1776901239808,1955
1776901239810,1957
1776901239812,1957
1776901239814,1960
1776901239816,1960
1776901239818,1959
1776901239848,1960
1776901239850,1962
1776901239852,1965
1776901239854,1971
1776901239856,1977
1776901239858,1983
1776901239860,1986
1776901239862,1990
1776901239864,1993
1776901239866,1995
1776901239848,1997
1776901239850,1998
1776901239852,2004
1776901239854,2007
1776901239856,2012
1776901239858,2018
1776901239860,2024
1776901239862,2032
1776901239864,2039
1776901239866,2042
1776901239848,2041
1776901239850,2051
1776901239852,2057
1776901239854,2063
1776901239856,2071
1776901239858,2080
1776901239860,2088
1776901239862,2090
1776901239864,2091
1776901239866,2090
1776901239890,2093
1776901239892,2095
1776901239894,2098
1776901239896,2099
1776901239898,2098
1776901239900,2105
1776901239902,2108
1776901239904,2112
1776901239906,2117
1776901239908,2124
1776901239890,2130
1776901239892,2136
1776901239894,2143
1776901239896,2200
1776901239898,2159
1776901239900,2167
1776901239902,2176
1776901239904,2184
1776901239906,2188
1776901239908,2187
1776901239944,2190
1776901239946,2196
1776901239948,2207
1776901239950,2226
1776901239952,2220
1776901239954,2224
1776901239956,2231
1776901239958,2235
1776901239960,2243
1776901239962,2246
1776901239944,2247
1776901239946,2249
1776901239948,2255
1776901239950,2262
1776901239952,2273
1776901239954,2276
1776901239956,2283
1776901239958,2293
1776901239960,2293
1776901239962,2291
1776901239981,2288
1776901239983,2288
1776901239985,2290
1776901239987,2296
1776901239989,2302
1776901239991,2311
1776901239993,2316
1776901239995,2321
1776901239997,2320
1776901239999,2320
1776901239981,2316
1776901239983,2315
1776901239985,2317
1776901239987,2321
1776901239989,2326
1776901239991,2333
1776901239993,2339
1776901239995,2348
1776901239997,2350
1776901239999,2355
1776901240025,2352
1776901240027,2357
1776901240029,2362
1776901240031,2371
1776901240033,2380
1776901240035,2390
1776901240037,2397
1776901240039,2403
1776901240041,2406
1776901240043,2405
1776901240025,2401
1776901240027,2403
1776901240029,2406
1776901240031,2408
1776901240033,2418
1776901240035,2423
1776901240037,2426
1776901240039,2428
1776901240041,2432
1776901240043,2433
1776901240072,2432
1776901240074,2440
1776901240076,2445
1776901240078,2453
1776901240080,2459
1776901240082,2468
1776901240084,2473
1776901240086,2484
1776901240088,2496
1776901240090,2504
1776901240072,2515
1776901240074,2524
1776901240076,2536
1776901240078,2549
1776901240080,2560
1776901240082,2564
1776901240084,2567
1776901240086,2567
1776901240088,2564
1776901240090,2561
1776901240072,2558
1776901240074,2562
1776901240076,2573
1776901240078,2588
1776901240080,2608
1776901240082,2630
1776901240084,2650
1776901240086,2670
1776901240088,2681
1776901240090,2683
1776901240115,2678
1776901240117,2675
1776901240119,2669
1776901240121,2662
1776901240123,2652
1776901240125,2642
1776901240127,2631
1776901240129,2621
1776901240131,2610
1776901240133,2600
1776901240115,2591
1776901240117,2591
1776901240119,2592
1776901240121,2637
1776901240123,2597
1776901240125,2599
1776901240127,2596
1776901240129,2594
1776901240131,2590
1776901240133,2587
1776901240168,2588
1776901240170,2588
1776901240172,2592
1776901240174,2595
1776901240176,2598
1776901240178,2601
1776901240180,2603
1776901240182,2609
1776901240184,2611
1776901240186,2612
1776901240168,2614
1776901240170,2617
1776901240172,2620
1776901240174,2625
1776901240176,2630
1776901240178,2633
1776901240180,2638
1776901240182,2642
1776901240184,2640
1776901240186,2639
1776901240205,2639
1776901240207,2643
1776901240209,2652
1776901240211,2661
1776901240213,2667
1776901240215,2671
1776901240217,2675
1776901240219,2674
1776901240221,2671
1776901240223,2668
1776901240205,2660
1776901240207,2662
1776901240209,2663
1776901240211,2667
1776901240213,2676
1776901240215,2679
1776901240217,2682
1776901240219,2674
1776901240221,2660
1776901240223,2639
1776901240205,2618
1776901240207,2607
1776901240209,2602
1776901240211,2599
1776901240213,2594
1776901240215,2597
1776901240217,2606
1776901240219,2640
1776901240221,2704
1776901240223,2806
1776901240250,2942
1776901240252,3110
1776901240254,3287
1776901240256,3448
1776901240258,3585
1776901240260,3678
1776901240262,3715
1776901240264,3682
1776901240266,3613
1776901240268,3536
1776901240250,3471
1776901240252,3408
1776901240254,3345
1776901240256,3288
1776901240258,3260
1776901240260,3259
1776901240262,3272
1776901240264,3267
1776901240266,3230
1776901240268,3172
1776901240296,3115
1776901240298,3081
1776901240300,3063
1776901240302,3046
1776901240304,3033
1776901240306,3014
1776901240308,2984
1776901240310,2944
1776901240312,2892
1776901240314,2844
1776901240296,2798
1776901240298,2762
1776901240300,2732
1776901240302,2700
1776901240304,2670
1776901240306,2643
1776901240308,2620
1776901240310,2608
1776901240312,2600
1776901240314,2596
1776901240340,2594
1776901240342,2600
1776901240344,2607
1776901240346,2613
1776901240348,2625
1776901240350,2631
1776901240352,2636
1776901240354,2639
1776901240356,2640
1776901240358,2642
1776901240340,2641
1776901240342,2650
1776901240344,2657
1776901240346,2663
1776901240348,2667
1776901240350,2672
1776901240352,2676
1776901240354,2679
1776901240356,2678
1776901240358,2677
1776901240392,2673
1776901240394,2672
1776901240396,2676
1776901240398,2678
1776901240400,2682
1776901240402,2687
1776901240404,2692
1776901240406,2691
1776901240408,2683
1776901240410,2682
1776901240430,2675
1776901240432,2674
1776901240434,2676
1776901240436,2674
1776901240438,2678
1776901240440,2676
1776901240442,2676
1776901240444,2674
1776901240446,2668
1776901240448,2664
1776901240430,2662
1776901240432,2666
1776901240434,2674
1776901240436,2681
1776901240438,2688
1776901240440,2695
1776901240442,2702
1776901240444,2706
1776901240446,2711
1776901240448,2712
1776901240430,2708
1776901240432,2709
1776901240434,2707
1776901240436,2706
1776901240438,2708
1776901240440,2709
1776901240442,2710
1776901240444,2710
1776901240446,2708
1776901240448,2708
1776901240430,2706
1776901240432,2706
1776901240434,2708
1776901240436,2711
1776901240438,2712
1776901240440,2711
1776901240442,2708
1776901240444,2703
1776901240446,2698
1776901240448,2691
1776901240475,2682
1776901240477,2678
1776901240479,2679
1776901240481,2679
1776901240483,2683
1776901240485,2682
1776901240487,2680
1776901240489,2676
1776901240491,2673
1776901240493,2669
1776901240475,2670
1776901240477,2673
1776901240479,2677
1776901240481,2691
1776901240483,2679
1776901240485,2677
1776901240487,2676
1776901240489,2672
1776901240491,2673
1776901240493,2672
1776901240520,2670
1776901240522,2677
1776901240524,2685
1776901240526,2691
1776901240528,2694
1776901240530,2696
1776901240532,2694
1776901240534,2693
1776901240536,2685
1776901240538,2677
1776901240520,2670
1776901240522,2673
1776901240524,2678
1776901240526,2684
1776901240528,2688
1776901240530,2694
1776901240532,2697
1776901240534,2697
1776901240536,2693
1776901240538,2686
1776901240565,2683
1776901240567,2681
1776901240569,2685
1776901240571,2687
1776901240573,2689
1776901240575,2691
1776901240577,2693
1776901240579,2692
1776901240581,2686
1776901240583,2683
1776901240565,2678
1776901240567,2673
1776901240569,2670
1776901240571,2669
1776901240573,2670
1776901240575,2670
1776901240577,2669
1776901240579,2666
1776901240581,2658
1776901240583,2653
1776901240565,2645
1776901240567,2645
1776901240569,2646
1776901240571,2649
1776901240573,2651
1776901240575,2653
1776901240577,2655
1776901240579,2651
1776901240581,2645
1776901240583,2639
1776901240615,2633
1776901240617,2630
1776901240619,2631
1776901240621,2626
1776901240623,2626
1776901240625,2624
1776901240627,2623
1776901240629,2622
1776901240631,2624
1776901240633,2622
1776901240615,2624
1776901240617,2621
1776901240619,2624
1776901240621,2626
1776901240623,2625
1776901240625,2624
1776901240627,2621
1776901240629,2620
1776901240631,2617
1776901240633,2610
1776901240655,2608
1776901240657,2605
1776901240659,2604
1776901240661,2609
1776901240663,2596
1776901240665,2593
1776901240667,2591
1776901240669,2587
1776901240671,2584
1776901240673,2575
1776901240655,2568
1776901240657,2563
1776901240659,2561
1776901240661,2555
1776901240663,2552
1776901240665,2548
1776901240667,2545
1776901240669,2538
1776901240671,2532
1776901240673,2527
1776901240700,2520
1776901240702,2521
1776901240704,2518
1776901240706,2515
1776901240708,2510
1776901240710,2506
1776901240712,2500
1776901240714,2492
1776901240716,2481
1776901240718,2467
1776901240700,2456
1776901240702,2445
1776901240704,2443
1776901240706,2438
1776901240708,2429
1776901240710,2425
1776901240712,2420
1776901240714,2413
1776901240716,2407
1776901240718,2400
1776901240745,2395
1776901240747,2391
1776901240749,2391
1776901240751,2390
1776901240753,2389
1776901240755,2386
1776901240757,2387
1776901240759,2382
1776901240761,2373
1776901240763,2368
1776901240745,2358
1776901240747,2357
1776901240749,2354
1776901240751,2352
1776901240753,2348
1776901240755,2346
1776901240757,2345
1776901240759,2338
1776901240761,2331
1776901240763,2327
1776901240790,2325
1776901240792,2324
1776901240794,2326
1776901240796,2328
1776901240798,2328
1776901240800,2325
1776901240802,2322
1776901240804,2320
1776901240806,2311
1776901240808,2306
1776901240790,2308
1776901240792,2311
1776901240794,2323
1776901240796,2332
1776901240798,2338
1776901240800,2344
1776901240802,2349
1776901240804,2346
1776901240806,2345
1776901240808,2338
1776901240790,2332
1776901240792,2330
1776901240794,2326
1776901240796,2318
1776901240798,2313
1776901240800,2308
1776901240802,2303
1776901240804,2301
1776901240806,2308
1776901240808,2314
1776901240840,2320
1776901240842,2328
1776901240844,2331
1776901240846,2328
1776901240848,2324
1776901240850,2316
1776901240852,2302
1776901240854,2293
1776901240856,2281
1776901240858,2269
1776901240840,2259
1776901240842,2255
1776901240844,2254
1776901240846,2298
1776901240848,2250
1776901240850,2246
1776901240852,2241
1776901240854,2233
1776901240856,2223
1776901240858,2217
1776901240880,2214
1776901240882,2207
1776901240884,2204
1776901240886,2197
1776901240888,2191
1776901240890,2185
1776901240892,2173
1776901240894,2164
1776901240896,2154
1776901240898,2143
1776901240880,2136
1776901240882,2133
1776901240884,2132
1776901240886,2134
1776901240888,2137
1776901240890,2142
1776901240892,2141
1776901240894,2141
1776901240896,2136
1776901240898,2129
1776901240935,2122
1776901240937,2120
1776901240939,2120
1776901240941,2116
1776901240943,2115
1776901240945,2111
1776901240947,2106
1776901240949,2100
1776901240951,2093
1776901240953,2089
1776901240936,2084
1776901240938,2085
1776901240940,2088
1776901240942,2084
1776901240944,2089
1776901240946,2088
1776901240948,2084
1776901240950,2080
1776901240952,2074
1776901240954,2061
1776901240936,2047
1776901240938,2027
1776901240940,2004
1776901240942,1984
1776901240944,1974
1776901240946,1966
1776901240948,1958
1776901240950,1952
1776901240952,1948
1776901240954,1963
1776901240970,2011
1776901240972,2099
1776901240974,2227
1776901240976,2383
1776901240978,2553
1776901240980,2713
1776901240982,2854
1776901240984,2962
1776901240986,3019
1776901240988,3014
1776901240970,2970
1776901240972,2934
1776901240974,2908
1776901240976,2887
1776901240978,2863
1776901240980,2842
1776901240982,2832
1776901240984,2826
1776901240986,2800
1776901240988,2745
1776901241015,2669
1776901241017,2597
1776901241019,2541
1776901241021,2510
1776901241023,2478
1776901241025,2458
1776901241027,2433
1776901241029,2389
1776901241031,2335
1776901241033,2282
1776901241015,2230
1776901241017,2178
1776901241019,2133
1776901241021,2075
1776901241023,2016
1776901241025,1961
1776901241027,1920
1776901241029,1890
1776901241031,1874
1776901241033,1866
1776901241065,1869
1776901241067,1878
1776901241069,1885
1776901241071,1889
1776901241073,1894
1776901241075,1891
1776901241077,1888
1776901241079,1883
1776901241081,1875
1776901241083,1870
1776901241065,1864
1776901241067,1864
1776901241069,1867
1776901241071,1871
1776901241073,1877
1776901241075,1884
1776901241077,1888
1776901241079,1889
1776901241081,1887
1776901241083,1885
1776901241105,1884
1776901241107,1890
1776901241109,1894
1776901241111,1900
1776901241113,1906
1776901241115,1911
1776901241117,1914
1776901241119,1916
1776901241121,1917
1776901241123,1916
1776901241105,1916
1776901241107,1917
1776901241109,1927
1776901241111,1928
1776901241113,1931
1776901241115,1933
1776901241117,1934
1776901241119,1933
1776901241121,1930
1776901241123,1927
1776901241105,1926
1776901241107,1928
1776901241109,1935
1776901241111,1939
1776901241113,1942
1776901241115,1943
1776901241117,1941
1776901241119,1936
1776901241121,1931
1776901241123,1931
1776901241160,1931
1776901241162,1938
1776901241164,1939
1776901241166,1940
1776901241168,1938
1776901241170,1939
1776901241172,1937
1776901241174,1934
1776901241176,1934
1776901241178,1935
1776901241160,1930
1776901241162,1937
1776901241164,1942
1776901241166,1944
1776901241168,1949
1776901241170,1951
1776901241172,1951
1776901241174,1947
1776901241176,1946
1776901241178,1946
1776901241195,1951
1776901241197,1959
1776901241199,1963
1776901241201,1975
1776901241203,1965
1776901241205,1961
1776901241207,1960
1776901241209,1957
1776901241211,1955
1776901241213,1954
1776901241195,1958
1776901241197,1961
1776901241199,1964
1776901241201,1966
1776901241203,1971
1776901241205,1968
1776901241207,1971
1776901241209,1969
1776901241211,1969
1776901241213,1964
1776901241241,1963
1776901241243,1965
1776901241245,1967
1776901241247,1971
1776901241249,1974
1776901241251,1974
1776901241253,1972
1776901241255,1971
1776901241257,1967
1776901241259,1965
1776901241241,1959
1776901241243,1963
1776901241245,1963
1776901241247,1964
1776901241249,1962
1776901241251,1965
1776901241253,1967
1776901241255,1967
1776901241257,1967
1776901241259,1965
1776901241288,1964
1776901241290,1965
1776901241292,1968
1776901241294,1968
1776901241296,1972
1776901241298,1971
1776901241300,1971
1776901241302,1970
1776901241304,1969
1776901241306,1970
1776901241288,1968
1776901241290,1973
1776901241292,1976
1776901241294,1977
1776901241296,1981
1776901241298,1981
1776901241300,1982
1776901241302,1980
1776901241304,1978
1776901241306,1978
1776901241288,1978
1776901241290,1983
1776901241292,1984
1776901241294,1990
1776901241296,1993
1776901241298,1998
1776901241300,2002
1776901241302,2002
1776901241304,2004
1776901241306,2009
1776901241330,2019
1776901241332,2034
1776901241334,2041
1776901241336,2049
1776901241338,2055
1776901241340,2063
1776901241342,2068
1776901241344,2074
1776901241346,2080
1776901241348,2086
1776901241330,2091
1776901241332,2101
1776901241334,2108
1776901241336,2114
1776901241338,2120
1776901241340,2124
1776901241342,2127
1776901241344,2127
1776901241346,2128
1776901241348,2132
1776901241384,2132
1776901241386,2139
1776901241388,2145
1776901241390,2155
1776901241392,2147
1776901241394,2141
1776901241396,2135
1776901241398,2127
1776901241400,2120
1776901241402,2117
1776901241384,2117
1776901241386,2124
1776901241388,2128
1776901241390,2134
1776901241392,2139
1776901241394,2140
1776901241396,2139
1776901241398,2137
1776901241400,2130
1776901241402,2128
1776901241420,2131
1776901241422,2133
1776901241424,2136
1776901241426,2136
1776901241428,2135
1776901241430,2136
1776901241432,2128
1776901241434,2124
1776901241436,2118
1776901241438,2115
1776901241420,2116
1776901241422,2117
1776901241424,2120
1776901241426,2126
1776901241428,2127
1776901241430,2129
1776901241432,2127
1776901241434,2125
1776901241436,2122
1776901241438,2123
1776901241465,2123
1776901241467,2129
1776901241469,2133
1776901241471,2135
1776901241473,2135
1776901241475,2132
1776901241477,2131
1776901241479,2128
1776901241481,2124
1776901241483,2124
1776901241465,2124
1776901241467,2132
1776901241469,2135
1776901241471,2137
1776901241473,2142
1776901241475,2147
1776901241477,2150
1776901241479,2153
1776901241481,2153
1776901241483,2151
1776901241511,2152
1776901241513,2152
1776901241515,2152
1776901241517,2149
1776901241519,2147
1776901241521,2143
1776901241523,2138
1776901241525,2132
1776901241527,2124
1776901241529,2120
1776901241511,2120
1776901241513,2119
1776901241515,2120
1776901241517,2121
1776901241519,2124
1776901241521,2123
1776901241523,2120
1776901241525,2112
1776901241527,2108
1776901241529,2112
1776901241511,2122
1776901241513,2136
1776901241515,2150
1776901241517,2159
1776901241519,2168
1776901241521,2176
1776901241523,2183
1776901241525,2185
1776901241527,2184
1776901241529,2179
1776901241555,2174
1776901241557,2169
1776901241559,2164
1776901241561,2162
1776901241563,2157
1776901241565,2157
1776901241567,2161
1776901241569,2171
1776901241571,2183
1776901241573,2196
1776901241555,2207
1776901241557,2217
1776901241559,2219
1776901241561,2215
1776901241563,2210
1776901241565,2202
1776901241567,2189
1776901241569,2173
1776901241571,2159
1776901241573,2150
1776901241608,2145
1776901241610,2138
1776901241612,2139
1776901241614,2140
1776901241616,2140
1776901241618,2136
1776901241620,2132
1776901241622,2125
1776901241624,2118
1776901241626,2110
1776901241608,2110
1776901241610,2107
1776901241612,2108
1776901241614,2107
1776901241616,2107
1776901241618,2106
1776901241620,2103
1776901241622,2097
1776901241624,2096
1776901241626,2103
1776901241645,2108
1776901241647,2115
1776901241649,2118
1776901241651,2118
1776901241653,2118
1776901241655,2115
1776901241657,2114
1776901241659,2109
1776901241661,2106
1776901241663,2109
1776901241645,2107
1776901241647,2113
1776901241649,2119
1776901241651,2119
1776901241653,2124
1776901241655,2125
1776901241657,2124
1776901241659,2121
1776901241661,2120
1776901241663,2121
1776901241645,2120
1776901241647,2122
1776901241649,2124
1776901241651,2126
1776901241653,2127
1776901241655,2130
1776901241657,2130
1776901241659,2124
1776901241661,2114
1776901241663,2096
1776901241690,2079
1776901241692,2056
1776901241694,2036
1776901241696,2023
1776901241698,2013
1776901241700,2005
1776901241702,2001
1776901241704,2004
1776901241706,2028
1776901241708,2084
1776901241690,2179
1776901241692,2312
1776901241694,2472
1776901241696,2637
1776901241698,2787
1776901241700,2919
1776901241702,3019
1776901241704,3074
1776901241706,3063
1776901241708,3022
1776901241736,2986
1776901241738,2968
1776901241740,2952
1776901241742,2935
1776901241744,2913
1776901241746,2906
1776901241748,2904
1776901241750,2888
1776901241752,2841
1776901241754,2771
1776901241736,2704
1776901241738,2653
1776901241740,2618
1776901241742,2594
1776901241744,2568
1776901241746,2539
1776901241748,2491
1776901241750,2437
1776901241752,2376
1776901241754,2325
1776901241780,2278
1776901241782,2228
1776901241784,2178
1776901241786,2119
1776901241788,2070
1776901241790,2025
1776901241792,1993
1776901241794,1973
1776901241796,1960
1776901241798,1959
1776901241780,1962
1776901241782,1972
1776901241784,1978
1776901241786,1987
1776901241788,1992
1776901241790,1995
1776901241792,1996
1776901241794,1994
1776901241796,1995
1776901241798,1998
1776901241832,2003
1776901241834,2009
1776901241836,2016
1776901241838,2018
1776901241840,2023
1776901241842,2027
1776901241844,2027
1776901241846,2027
1776901241848,2023
1776901241850,2028
1776901241832,2029
1776901241834,2031
1776901241836,2035
1776901241838,2038
1776901241840,2039
1776901241842,2034
1776901241844,2030
1776901241846,2026
1776901241848,2024
1776901241850,2025
1776901241832,2028
1776901241834,2033
1776901241836,2038
1776901241838,2040
1776901241840,2041
1776901241842,2034
1776901241844,2027
1776901241846,2022
1776901241848,2018
1776901241850,2018
1776901241870,2018
1776901241872,2027
1776901241874,2035
1776901241876,2038
1776901241878,2038
1776901241880,2036
1776901241882,2037
1776901241884,2032
1776901241886,2026
1776901241888,2027
1776901241870,2027
1776901241872,2034
1776901241874,2041
1776901241876,2045
1776901241878,2048
1776901241880,2057
1776901241882,2061
1776901241884,2067
1776901241886,2073
1776901241888,2084
1776901241915,2091
1776901241917,2097
1776901241919,2102
1776901241921,2113
1776901241923,2107
1776901241925,2105
1776901241927,2103
1776901241929,2100
1776901241931,2100
1776901241933,2106
1776901241915,2114
1776901241917,2125
1776901241919,2139
1776901241921,2149
1776901241923,2157
1776901241925,2159
1776901241927,2159
1776901241929,2158
1776901241931,2157
1776901241933,2158
1776901241960,2162
1776901241962,2167
1776901241964,2171
1776901241966,2170
1776901241968,2171
1776901241970,2171
1776901241972,2169
1776901241974,2167
1776901241976,2166
1776901241978,2165
1776901241960,2169
1776901241962,2173
1776901241964,2182
1776901241966,2191
1776901241968,2201
1776901241970,2210
1776901241972,2218
1776901241974,2225
1776901241976,2232
1776901241978,2236
1776901242005,2239
1776901242007,2244
1776901242009,2251
1776901242011,2253
1776901242013,2256
1776901242015,2256
1776901242017,2251
1776901242019,2249
1776901242021,2240
1776901242023,2247
1776901242005,2248
1776901242007,2253
1776901242009,2257
1776901242011,2263
1776901242013,2266
1776901242015,2271
1776901242017,2274
1776901242019,2276
1776901242021,2278
1776901242023,2281
1776901242005,2283
1776901242007,2290
1776901242009,2298
1776901242011,2303
1776901242013,2305
1776901242015,2304
1776901242017,2301
1776901242019,2297
1776901242021,2294
1776901242023,2297
1776901242055,2300
1776901242057,2304
1776901242059,2313
1776901242061,2317
1776901242063,2319
1776901242065,2321
1776901242067,2321
1776901242069,2321
1776901242071,2320
1776901242073,2324
1776901242055,2323
1776901242057,2323
1776901242059,2326
1776901242061,2328
1776901242063,2331
1776901242065,2329
1776901242067,2328
1776901242069,2326
1776901242071,2324
1776901242073,2328
1776901242096,2330
1776901242098,2335
1776901242100,2342
1776901242102,2351
1776901242104,2343
1776901242106,2341
1776901242108,2338
1776901242110,2333
1776901242112,2329
1776901242114,2325
1776901242096,2324
1776901242098,2329
1776901242100,2332
1776901242102,2332
1776901242104,2331
1776901242106,2328
1776901242108,2325
1776901242110,2322
1776901242112,2321
1776901242114,2324
1776901242151,2329
1776901242153,2337
1776901242155,2338
1776901242157,2337
1776901242159,2334
1776901242161,2332
1776901242163,2330
1776901242165,2327
1776901242167,2329
1776901242169,2331
1776901242151,2338
1776901242153,2343
1776901242155,2348
1776901242157,2351
1776901242159,2349
1776901242161,2349
1776901242163,2340
1776901242165,2334
1776901242167,2332
1776901242169,2334
1776901242185,2338
1776901242187,2344
1776901242189,2346
1776901242191,2348
1776901242193,2347
1776901242195,2347
1776901242197,2348
1776901242199,2345
1776901242201,2344
1776901242203,2349
1776901242185,2354
1776901242187,2358
1776901242189,2361
1776901242191,2365
1776901242193,2368
1776901242195,2368
1776901242197,2364
1776901242199,2361
1776901242201,2360
1776901242203,2361
1776901242231,2361
1776901242233,2366
1776901242235,2370
1776901242237,2377
1776901242239,2384
1776901242241,2390
1776901242243,2390
1776901242245,2392
1776901242247,2390
1776901242249,2391
1776901242231,2394
1776901242233,2392
1776901242235,2396
1776901242237,2394
1776901242239,2392
1776901242241,2383
1776901242243,2376
1776901242245,2370
1776901242247,2363
1776901242249,2363
1776901242231,2369
1776901242233,2376
1776901242235,2379
1776901242237,2380
1776901242239,2381
1776901242241,2379
1776901242243,2377
1776901242245,2374
1776901242247,2370
1776901242249,2373
1776901242280,2375
1776901242282,2381
1776901242284,2390
1776901242286,2395
1776901242288,2401
1776901242290,2400
1776901242292,2402
1776901242294,2398
1776901242296,2401
1776901242298,2405
1776901242280,2409
1776901242282,2415
1776901242284,2409
1776901242286,2445
1776901242288,2396
1776901242290,2390
1776901242292,2383
1776901242294,2377
1776901242296,2380
1776901242298,2394
1776901242320,2412
1776901242322,2432
1776901242324,2454
1776901242326,2466
1776901242328,2471
1776901242330,2468
1776901242332,2458
1776901242334,2450
1776901242336,2444
1776901242338,2437
1776901242320,2432
1776901242322,2424
1776901242324,2413
1776901242326,2407
1776901242328,2397
1776901242330,2390
1776901242332,2382
1776901242334,2376
1776901242336,2369
1776901242338,2364
1776901242376,2360
1776901242378,2361
1776901242380,2360
1776901242382,2357
1776901242384,2353
1776901242386,2345
1776901242388,2341
1776901242390,2331
1776901242392,2324
1776901242394,2321
1776901242376,2317
1776901242378,2320
1776901242380,2321
1776901242382,2320
1776901242384,2322
1776901242386,2320
1776901242388,2319
1776901242390,2317
1776901242392,2319
1776901242394,2323
1776901242376,2332
1776901242378,2335
1776901242380,2335
1776901242382,2333
1776901242384,2329
1776901242386,2324
1776901242388,2315
1776901242390,2309
1776901242392,2304
1776901242394,2306
1776901242410,2310
1776901242412,2310
1776901242414,2314
1776901242416,2312
1776901242418,2309
1776901242420,2302
1776901242422,2295
1776901242424,2290
1776901242426,2288
1776901242428,2289
1776901242410,2283
1776901242412,2278
1776901242414,2261
1776901242416,2238
1776901242418,2212
1776901242420,2198
1776901242422,2184
1776901242424,2176
1776901242426,2175
1776901242428,2176
1776901242455,2187
1776901242457,2227
1776901242459,2296
1776901242461,2406
1776901242463,2537
1776901242465,2696
1776901242467,2856
1776901242469,2999
1776901242471,3114
1776901242473,3192
1776901242455,3211
1776901242457,3176
1776901242459,3116
1776901242461,3048
1776901242463,2987
1776901242465,2933
1776901242467,2875
1776901242469,2829
1776901242471,2806
1776901242473,2809
1776901242504,2816
1776901242506,2806
1776901242508,2767
1776901242510,2707
1776901242512,2658
1776901242514,2627
1776901242516,2599
1776901242518,2573
1776901242520,2542
1776901242522,2514
1776901242504,2478
1776901242506,2440
1776901242508,2388
1776901242510,2339
1776901242512,2293
1776901242514,2257
1776901242516,2217
1776901242518,2181
1776901242520,2146
1776901242522,2117
1776901242545,2095
1776901242547,2088
1776901242549,2083
1776901242551,2080
1776901242553,2078
1776901242555,2079
1776901242557,2080
1776901242559,2076
1776901242561,2074
1776901242563,2078
1776901242545,2079
1776901242547,2075
1776901242549,2078
1776901242551,2074
1776901242553,2073
1776901242555,2068
1776901242557,2067
1776901242559,2068
1776901242561,2073
1776901242563,2078
1776901242545,2085
1776901242547,2087
1776901242549,2091
1776901242551,2092
1776901242553,2093
1776901242555,2090
1776901242557,2085
1776901242559,2077
1776901242561,2074
1776901242563,2075
1776901242600,2076
1776901242602,2082
1776901242604,2090
1776901242606,2095
1776901242608,2100
1776901242610,2101
1776901242612,2098
1776901242614,2097
1776901242616,2095
1776901242618,2100
1776901242600,2102
1776901242602,2110
1776901242604,2113
1776901242606,2115
1776901242608,2112
1776901242610,2112
1776901242612,2110
1776901242614,2105
1776901242616,2106
1776901242618,2110
1776901242636,2113
1776901242638,2118
1776901242640,2123
1776901242642,2137
1776901242644,2124
1776901242646,2120
1776901242648,2115
1776901242650,2112
1776901242652,2113
1776901242654,2121
1776901242636,2123
1776901242638,2128
1776901242640,2137
1776901242642,2146
1776901242644,2152
1776901242646,2154
1776901242648,2154
1776901242650,2154
1776901242652,2157
1776901242654,2162
1776901242680,2169
1776901242682,2174
1776901242684,2174
1776901242686,2174
1776901242688,2174
1776901242690,2172
1776901242692,2171
1776901242694,2170
1776901242696,2169
1776901242698,2172
1776901242680,2173
1776901242682,2178
1776901242684,2185
1776901242686,2190
1776901242688,2193
1776901242690,2197
1776901242692,2199
1776901242694,2198
1776901242696,2200
1776901242698,2204
1776901242728,2208
1776901242730,2215
1776901242732,2225
1776901242734,2227
1776901242736,2233
1776901242738,2233
1776901242740,2236
1776901242742,2240
1776901242744,2243
1776901242746,2253
1776901242728,2256
1776901242730,2261
1776901242732,2260
1776901242734,2263
1776901242736,2263
1776901242738,2265
1776901242740,2263
1776901242742,2263
1776901242744,2268
1776901242746,2277
1776901242728,2280
1776901242730,2288
1776901242732,2292
1776901242734,2297
1776901242736,2303
1776901242738,2303
1776901242740,2303
1776901242742,2304
1776901242744,2306
1776901242746,2310
1776901242773,2315
1776901242775,2314
1776901242777,2315
1776901242779,2316
1776901242781,2314
1776901242783,2314
1776901242785,2313
1776901242787,2311
1776901242789,2309
1776901242791,2314
1776901242773,2320
1776901242775,2325
1776901242777,2332
1776901242779,2337
1776901242781,2341
1776901242783,2337
1776901242785,2338
1776901242787,2338
1776901242789,2339
1776901242791,2339
1776901242824,2337
1776901242826,2336
1776901242828,2338
1776901242830,2346
1776901242832,2338
1776901242834,2333
1776901242836,2330
1776901242838,2326
1776901242840,2330
1776901242842,2336
1776901242824,2338
1776901242826,2341
1776901242828,2345
1776901242830,2347
1776901242832,2347
1776901242834,2343
1776901242836,2337
1776901242838,2335
1776901242840,2335
1776901242842,2338
1776901242860,2343
1776901242862,2344
1776901242864,2344
1776901242866,2342
1776901242868,2343
1776901242870,2342
1776901242872,2338
1776901242874,2336
1776901242876,2335
1776901242878,2338
1776901242860,2341
1776901242862,2342
1776901242864,2344
1776901242866,2342
1776901242868,2343
1776901242870,2340
1776901242872,2335
1776901242874,2333
1776901242876,2333
1776901242878,2334
1776901242905,2337
1776901242907,2338
1776901242909,2336
1776901242911,2340
1776901242913,2341
1776901242915,2340
1776901242917,2341
1776901242919,2337
1776901242921,2337
1776901242923,2342
1776901242905,2340
1776901242907,2343
1776901242909,2344
1776901242911,2343
1776901242913,2340
1776901242915,2335
1776901242917,2331
1776901242919,2327
1776901242921,2326
1776901242923,2327
1776901242952,2327
1776901242954,2332
1776901242956,2333
1776901242958,2333
1776901242960,2332
1776901242962,2329
1776901242964,2326
1776901242966,2326
1776901242968,2327
1776901242970,2331
1776901242952,2334
1776901242954,2334
1776901242956,2342
1776901242958,2343
1776901242960,2343
1776901242962,2343
1776901242964,2336
1776901242966,2333
1776901242968,2335
1776901242970,2344
1776901242952,2348
1776901242954,2352
1776901242956,2356
1776901242958,2355
1776901242960,2353
1776901242962,2354
1776901242964,2355
1776901242966,2358
1776901242968,2362
1776901242970,2360
1776901242995,2362
1776901242997,2362
1776901242999,2366
1776901243001,2368
1776901243003,2370
1776901243005,2371
1776901243007,2372
1776901243009,2378
1776901243011,2387
1776901243013,2400
1776901242995,2410
1776901242997,2416
1776901242999,2417
1776901243001,2461
1776901243003,2407
1776901243005,2402
1776901243007,2397
1776901243009,2395
1776901243011,2404
1776901243013,2420
1776901243048,2439
1776901243050,2458
1776901243052,2475
1776901243054,2485
1776901243056,2487
1776901243058,2485
1776901243060,2476
1776901243062,2467
1776901243064,2457
1776901243066,2443
1776901243048,2433
1776901243050,2420
1776901243052,2407
1776901243054,2393
1776901243056,2379
1776901243058,2370
1776901243060,2361
1776901243062,2353
1776901243064,2353
1776901243066,2352
1776901243085,2348
1776901243087,2346
1776901243089,2342
1776901243091,2338
1776901243093,2333
1776901243095,2322
1776901243097,2311
1776901243099,2300
1776901243101,2295
1776901243103,2294
1776901243085,2293
1776901243087,2294
1776901243089,2292
1776901243091,2292
1776901243093,2290
1776901243095,2291
1776901243097,2294
1776901243099,2295
1776901243101,2299
1776901243103,2305
1776901243085,2312
1776901243087,2316
1776901243089,2321
1776901243091,2325
1776901243093,2324
1776901243095,2322
1776901243097,2321
1776901243099,2322
1776901243101,2325
1776901243103,2326
1776901243130,2328
1776901243132,2328
1776901243134,2328
1776901243136,2325
1776901243138,2317
1776901243140,2311
1776901243142,2301
1776901243144,2300
1776901243146,2302
1776901243148,2304
1776901243130,2304
1776901243132,2302
1776901243134,2287
1776901243136,2263
1776901243138,2238
1776901243140,2210
1776901243142,2190
1776901243144,2177
1776901243146,2168
1776901243148,2167
1776901243176,2173
1776901243178,2193
1776901243180,2242
1776901243182,2330
1776901243184,2441
1776901243186,2588
1776901243188,2755
1776901243190,2915
1776901243192,3057
1776901243194,3177
1776901243176,3253
1776901243178,3266
1776901243180,3230
1776901243182,3174
1776901243184,3125
1776901243186,3080
1776901243188,3029
1776901243190,2983
1776901243192,2955
1776901243194,2945
1776901243220,2944
1776901243222,2923
1776901243224,2869
1776901243226,2798
1776901243228,2732
1776901243230,2683
1776901243232,2648
1776901243234,2628
1776901243236,2610
1776901243238,2592
1776901243220,2558
1776901243222,2520
1776901243224,2474
1776901243226,2424
1776901243228,2378
1776901243230,2333
1776901243232,2280
1776901243234,2234
1776901243236,2193
1776901243238,2163
1776901243272,2140
1776901243274,2136
1776901243276,2134
1776901243278,2136
1776901243280,2141
1776901243282,2146
1776901243284,2149
1776901243286,2155
1776901243288,2153
1776901243290,2156
1776901243272,2154
1776901243274,2153
1776901243276,2156
1776901243278,2158
1776901243280,2157
1776901243282,2156
1776901243284,2155
1776901243286,2155
1776901243288,2160
1776901243290,2168
1776901243272,2173
1776901243274,2182
1776901243276,2187
1776901243278,2192
1776901243280,2197
1776901243282,2200
1776901243284,2199
1776901243286,2203
1776901243288,2206
1776901243290,2209
1776901243320,2211
1776901243322,2214
1776901243324,2219
1776901243326,2219
1776901243328,2217
1776901243330,2212
1776901243332,2208
1776901243334,2209
1776901243336,2218
1776901243338,2227
1776901243320,2236
1776901243322,2245
1776901243324,2245
1776901243326,2246
1776901243328,2247
1776901243330,2244
1776901243332,2242
1776901243334,2243
1776901243336,2248
1776901243338,2249
1776901243355,2252
1776901243357,2254
1776901243359,2259
1776901243361,2264
1776901243363,2256
1776901243365,2253
1776901243367,2252
1776901243369,2251
1776901243371,2250
1776901243373,2250
1776901243355,2248
1776901243357,2249
1776901243359,2248
1776901243361,2249
1776901243363,2248
1776901243365,2249
1776901243367,2250
1776901243369,2251
1776901243371,2256
1776901243373,2262
1776901243401,2267
1776901243403,2273
1776901243405,2279
1776901243407,2280
1776901243409,2282
1776901243411,2279
1776901243413,2274
1776901243415,2277
1776901243417,2281
1776901243419,2284
1776901243401,2285
1776901243403,2290
1776901243405,2293
1776901243407,2292
1776901243409,2289
1776901243411,2285
1776901243413,2281
1776901243415,2281
1776901243417,2284
1776901243419,2288
1776901243445,2294
1776901243447,2298
1776901243449,2299
1776901243451,2298
1776901243453,2294
1776901243455,2288
1776901243457,2283
1776901243459,2279
1776901243461,2278
1776901243463,2281
1776901243445,2283
1776901243447,2280
1776901243449,2281
1776901243451,2280
1776901243453,2280
1776901243455,2273
1776901243457,2270
1776901243459,2271
1776901243461,2273
1776901243463,2279
1776901243445,2282
1776901243447,2290
1776901243449,2295
1776901243451,2300
1776901243453,2300
1776901243455,2301
1776901243457,2301
1776901243459,2301
1776901243461,2302
1776901243463,2309
1776901243496,2306
1776901243498,2303
1776901243500,2306
1776901243502,2301
1776901243504,2299
1776901243506,2295
1776901243508,2295
1776901243510,2298
1776901243512,2301
1776901243514,2310
1776901243496,2317
1776901243498,2318
1776901243500,2321
1776901243502,2318
1776901243504,2315
1776901243506,2311
1776901243508,2311
1776901243510,2312
1776901243512,2318
1776901243514,2324
1776901243535,2322
1776901243537,2326
1776901243539,2324
1776901243541,2332
1776901243543,2317
1776901243545,2308
1776901243547,2300
1776901243549,2298
1776901243551,2300
1776901243553,2303
1776901243535,2306
1776901243537,2316
1776901243539,2324
1776901243541,2329
1776901243543,2334
1776901243545,2331
1776901243547,2330
1776901243549,2326
1776901243551,2322
1776901243553,2318
1776901243580,2317
1776901243582,2314
1776901243584,2315
1776901243586,2319
1776901243588,2322
1776901243590,2321
1776901243592,2318
1776901243594,2322
1776901243596,2321
1776901243598,2324
1776901243592,2326
1776901243594,2324
1776901243596,2329
1776901243598,2328
1776901243600,2327
1776901243602,2323
1776901243604,2323
1776901243606,2327
1776901243608,2330
1776901243610,2335
1776901243626,2337
1776901243628,2339
1776901243630,2335
1776901243632,2333
1776901243634,2329
1776901243636,2323
1776901243638,2318
1776901243640,2321
1776901243642,2322
1776901243644,2324
1776901243626,2318
1776901243628,2319
1776901243630,2316
1776901243632,2312
1776901243634,2308
1776901243636,2306
1776901243638,2305
1776901243640,2305
1776901243642,2312
1776901243644,2315
1776901243671,2319
1776901243673,2323
1776901243675,2327
1776901243677,2330
1776901243679,2331
1776901243681,2331
1776901243683,2331
1776901243685,2336
1776901243687,2343
1776901243689,2349
1776901243671,2358
1776901243673,2361
1776901243675,2366
1776901243677,2367
1776901243679,2364
1776901243681,2360
1776901243683,2355
1776901243685,2353
1776901243687,2356
1776901243689,2358
1776901243671,2358
1776901243673,2363
1776901243675,2367
1776901243677,2370
1776901243679,2377
1776901243681,2378
1776901243683,2380
1776901243685,2382
1776901243687,2389
1776901243689,2393
1776901243721,2402
1776901243723,2412
1776901243725,2421
1776901243727,2425
1776901243729,2424
1776901243731,2420
1776901243733,2414
1776901243735,2415
1776901243737,2420
1776901243739,2428
1776901243721,2430
1776901243723,2437
1776901243725,2441
1776901243727,2487
1776901243729,2445
1776901243731,2447
1776901243733,2450
1776901243735,2454
1776901243737,2459
1776901243739,2468
1776901243760,2476
1776901243762,2484
1776901243764,2494
1776901243766,2501
1776901243768,2507
1776901243770,2512
1776901243772,2519
1776901243774,2524
1776901243776,2528
1776901243778,2528
1776901243760,2528
1776901243762,2526
1776901243764,2521
1776901243766,2517
1776901243768,2514
1776901243770,2510
1776901243772,2510
1776901243774,2523
1776901243776,2541
1776901243778,2555
1776901243817,2567
1776901243819,2573
1776901243821,2575
1776901243823,2572
1776901243825,2560
1776901243827,2553
1776901243829,2540
1776901243831,2529
1776901243833,2520
1776901243835,2509
1776901243817,2498
1776901243819,2493
1776901243821,2490
1776901243823,2484
1776901243825,2476
1776901243827,2469
1776901243829,2463
1776901243831,2459
1776901243833,2459
1776901243835,2461
1776901243817,2464
1776901243819,2465
1776901243821,2463
1776901243823,2462
1776901243825,2456
1776901243827,2451
1776901243829,2447
1776901243831,2446
1776901243833,2450
1776901243835,2453
1776901243851,2461
1776901243853,2464
1776901243855,2470
1776901243857,2465
1776901243859,2464
1776901243861,2459
1776901243863,2455
1776901243865,2456
1776901243867,2456
1776901243869,2455
1776901243851,2447
1776901243853,2449
1776901243855,2449
1776901243857,2451
1776901243859,2443
1776901243861,2442
1776901243863,2444
1776901243865,2444
1776901243867,2448
1776901243869,2447
1776901243896,2450
1776901243898,2457
1776901243900,2456
1776901243902,2455
1776901243904,2454
1776901243906,2448
1776901243908,2444
1776901243910,2442
1776901243912,2436
1776901243914,2423
1776901243896,2404
1776901243898,2378
1776901243900,2361
1776901243902,2346
1776901243904,2331
1776901243906,2318
1776901243908,2314
1776901243910,2317
1776901243912,2336
1776901243914,2385
1776901243944,2467
1776901243946,2584
1776901243948,2734
1776901243950,2895
1776901243952,3044
1776901243954,3183
1776901243956,3299
1776901243958,3374
1776901243960,3383
1776901243962,3348
1776901243944,3307
1776901243946,3282
1776901243948,3262
1776901243950,3233
1776901243952,3214
1776901243954,3207
1776901243956,3205
1776901243958,3196
1776901243960,3154
1776901243962,3084
1776901243989,3013
1776901243991,2953
1776901243993,2908
1776901243995,2873
1776901243997,2843
1776901243999,2813
1776901244001,2771
1776901244003,2714
1776901244005,2655
1776901244007,2595
1776901243989,2534
1776901243991,2474
1776901243993,2412
1776901243995,2342
1776901243997,2282
1776901243999,2231
1776901244001,2201
1776901244003,2184
1776901244005,2185
1776901244007,2189
1776901243989,2195
1776901243991,2202
1776901243993,2204
1776901243995,2205
1776901243997,2197
1776901243999,2190
1776901244001,2184
1776901244003,2181
1776901244005,2179
1776901244007,2177
1776901244041,2170
1776901244043,2166
1776901244045,2158
1776901244047,2145
1776901244049,2129
1776901244051,2115
1776901244053,2104
1776901244055,2097
1776901244057,2092
1776901244059,2089
1776901244041,2085
1776901244043,2081
1776901244045,2076
1776901244047,2061
1776901244049,2052
1776901244051,2044
1776901244053,2036
1776901244055,2029
1776901244057,2023
1776901244059,2014
1776901244075,2002
1776901244077,1992
1776901244079,1982
1776901244081,1977
1776901244083,1952
1776901244085,1938
1776901244087,1928
1776901244089,1920
1776901244091,1915
1776901244093,1911
1776901244075,1907
1776901244077,1906
1776901244079,1905
1776901244081,1904
1776901244083,1901
1776901244085,1897
1776901244087,1895
1776901244089,1897
1776901244091,1898
1776901244093,1901
1776901244121,1904
1776901244123,1907
1776901244125,1913
1776901244127,1914
1776901244129,1915
1776901244131,1917
1776901244133,1921
1776901244135,1923
1776901244137,1924
1776901244139,1925
1776901244121,1923
1776901244123,1925
1776901244125,1921
1776901244127,1918
1776901244129,1909
1776901244131,1897
1776901244133,1884
1776901244135,1874
1776901244137,1869
1776901244139,1863
1776901244170,1860
1776901244172,1858
1776901244174,1855
1776901244176,1853
1776901244178,1849
1776901244180,1845
1776901244182,1841
1776901244184,1842
1776901244186,1841
1776901244188,1835
1776901244170,1828
1776901244172,1820
1776901244174,1815
1776901244176,1806
1776901244178,1795
1776901244180,1783
1776901244182,1771
1776901244184,1766
1776901244186,1759
1776901244188,1757
1776901244220,1757
1776901244222,1756
1776901244224,1754
1776901244226,1749
1776901244228,1742
1776901244230,1736
1776901244232,1730
1776901244234,1724
1776901244236,1715
1776901244238,1709
1776901244220,1706
1776901244222,1701
1776901244224,1701
1776901244226,1697
1776901244228,1690
1776901244230,1684
1776901244232,1677
1776901244234,1674
1776901244236,1672
1776901244238,1674
1776901244220,1674
1776901244222,1673
1776901244224,1668
1776901244226,1662
1776901244228,1658
1776901244230,1654
1776901244232,1651
1776901244234,1652
1776901244236,1650
1776901244238,1651
1776901244270,1652
1776901244272,1652
1776901244274,1648
1776901244276,1640
1776901244278,1626
1776901244280,1618
1776901244282,1611
1776901244284,1606
1776901244286,1604
1776901244288,1602
1776901244270,1597
1776901244272,1594
1776901244274,1588
1776901244276,1581
1776901244278,1579
1776901244280,1572
1776901244282,1568
1776901244284,1567
1776901244286,1568
1776901244288,1566
1776901244310,1567
1776901244312,1568
1776901244314,1562
1776901244316,1551
1776901244318,1539
1776901244320,1525
1776901244322,1520
1776901244324,1512
1776901244326,1511
1776901244328,1512
1776901244310,1515
1776901244312,1514
1776901244314,1516
1776901244316,1514
1776901244318,1512
1776901244320,1508
1776901244322,1505
1776901244324,1502
1776901244326,1499
1776901244328,1499
1776901244345,1498
1776901244347,1495
1776901244349,1491
1776901244351,1486
1776901244353,1481
1776901244355,1476
1776901244357,1469
1776901244359,1468
1776901244361,1465
1776901244363,1463
1776901244345,1460
1776901244347,1459
1776901244349,1457
1776901244351,1454
1776901244353,1451
1776901244355,1445
1776901244357,1447
1776901244359,1448
1776901244361,1455
1776901244363,1458
1776901244392,1455
1776901244394,1459
1776901244396,1453
1776901244398,1444
1776901244400,1441
1776901244402,1435
1776901244404,1428
1776901244406,1423
1776901244408,1415
1776901244410,1411
1776901244392,1405
1776901244394,1397
1776901244396,1391
1776901244398,1383
1776901244400,1375
1776901244402,1368
1776901244404,1366
1776901244406,1369
1776901244408,1372
1776901244410,1372
1776901244392,1375
1776901244394,1373
1776901244396,1371
1776901244398,1364
1776901244400,1354
1776901244402,1345
1776901244404,1337
1776901244406,1336
1776901244408,1330
1776901244410,1329
1776901244436,1327
1776901244438,1331
1776901244440,1326
1776901244442,1319
1776901244444,1315
1776901244446,1308
1776901244448,1306
1776901244450,1305
1776901244452,1309
1776901244454,1309
1776901244436,1311
1776901244438,1318
1776901244440,1319
1776901244442,1357
1776901244444,1309
1776901244446,1306
1776901244448,1309
1776901244450,1312
1776901244452,1318
1776901244454,1327
1776901244487,1329
1776901244489,1328
1776901244491,1331
1776901244493,1329
1776901244495,1328
1776901244497,1327
1776901244499,1325
1776901244501,1325
1776901244503,1325
1776901244505,1331
1776901244487,1333
1776901244489,1333
1776901244491,1333
1776901244493,1332
1776901244495,1328
1776901244497,1325
1776901244499,1327
1776901244501,1332
1776901244503,1335
1776901244505,1341
1776901244525,1347
1776901244527,1355
1776901244529,1360
1776901244531,1365
1776901244533,1368
1776901244535,1378
1776901244537,1385
1776901244539,1398
1776901244541,1412
1776901244543,1423
1776901244525,1425
1776901244527,1423
1776901244529,1418
1776901244531,1405
1776901244533,1394
1776901244535,1385
1776901244537,1382
1776901244539,1384
1776901244541,1396
1776901244543,1415
1776901244570,1435
1776901244572,1455
1776901244574,1465
1776901244576,1469
1776901244578,1464
1776901244580,1459
1776901244582,1451
1776901244584,1446
1776901244586,1439
1776901244588,1430
1776901244570,1421
1776901244572,1408
1776901244574,1396
1776901244576,1384
1776901244578,1371
1776901244580,1364
1776901244582,1360
1776901244584,1357
1776901244586,1358
1776901244588,1357
1776901244570,1353
1776901244572,1354
1776901244574,1349
1776901244576,1341
1776901244578,1338
1776901244580,1335
1776901244582,1337
1776901244584,1341
1776901244586,1342
1776901244588,1344
1776901244616,1344
1776901244618,1348
1776901244620,1351
1776901244622,1350
1776901244624,1352
1776901244626,1351
1776901244628,1349
1776901244630,1351
1776901244632,1353
1776901244634,1360
1776901244616,1363
1776901244618,1369
1776901244620,1377
1776901244622,1383
1776901244624,1384
1776901244626,1387
1776901244628,1396
1776901244630,1408
1776901244632,1418
1776901244634,1430
1776901244660,1440
1776901244662,1447
1776901244664,1450
1776901244666,1453
1776901244668,1452
1776901244670,1453
1776901244672,1457
1776901244674,1468
1776901244676,1473
1776901244678,1474
1776901244660,1464
1776901244662,1453
1776901244664,1434
1776901244666,1417
1776901244668,1408
1776901244670,1405
1776901244672,1404
1776901244674,1405
1776901244676,1411
1776901244678,1433
1776901244711,1478
1776901244713,1566
1776901244715,1689
1776901244717,1848
1776901244719,2020
1776901244721,2183
1776901244723,2330
1776901244725,2446
1776901244727,2505
1776901244729,2505
1776901244711,2466
1776901244713,2422
1776901244715,2399
1776901244717,2382
1776901244719,2363
1776901244721,2352
1776901244723,2360
1776901244725,2377
1776901244727,2385
1776901244729,2356
1776901244711,2294
1776901244713,2214
1776901244715,2153
1776901244717,2104
1776901244719,2060
1776901244721,2033
1776901244723,2006
1776901244725,1974
1776901244727,1932
1776901244729,1884
1776901244750,1831
1776901244752,1779
1776901244754,1733
1776901244756,1682
1776901244758,1630
1776901244760,1582
1776901244762,1542
1776901244764,1521
1776901244766,1511
1776901244768,1512
1776901244750,1519
1776901244752,1532
1776901244754,1544
1776901244756,1537
1776901244758,1553
1776901244760,1556
1776901244762,1562
1776901244764,1567
1776901244766,1574
1776901244768,1583
1776901244795,1593
1776901244797,1602
1776901244799,1613
1776901244801,1627
1776901244803,1623
1776901244805,1627
1776901244807,1633
1776901244809,1640
1776901244811,1648
1776901244813,1653
1776901244795,1660
1776901244797,1664
1776901244799,1670
1776901244801,1669
1776901244803,1671
1776901244805,1674
1776901244807,1683
1776901244809,1696
1776901244811,1704
1776901244813,1712
1776901244841,1718
1776901244843,1724
1776901244845,1726
1776901244847,1726
1776901244849,1730
1776901244851,1733
1776901244853,1737
1776901244855,1752
1776901244857,1761
1776901244859,1769
1776901244841,1772
1776901244843,1782
1776901244845,1787
1776901244847,1788
1776901244849,1785
1776901244851,1789
1776901244853,1793
1776901244855,1802
1776901244857,1811
1776901244859,1821
1776901244885,1829
1776901244887,1833
1776901244889,1839
1776901244891,1841
1776901244893,1845
1776901244895,1850
1776901244897,1856
1776901244899,1871
1776901244901,1881
1776901244903,1893
1776901244885,1899
1776901244887,1901
1776901244889,1909
1776901244891,1911
1776901244893,1917
1776901244895,1925
1776901244897,1934
1776901244899,1945
1776901244901,1956
1776901244903,1965
1776901244885,1969
1776901244887,1978
1776901244889,1978
1776901244891,1980
1776901244893,1982
1776901244895,1987
1776901244897,1995
1776901244899,2002
1776901244901,2009
1776901244903,2013
1776901244934,2022
1776901244936,2028
1776901244938,2035
1776901244940,2037
1776901244942,2037
1776901244944,2040
1776901244946,2045
1776901244948,2052
1776901244950,2055
1776901244952,2059
1776901244935,2059
1776901244937,2059
1776901244939,2065
1776901244941,2070
1776901244943,2072
1776901244945,2083
1776901244947,2093
1776901244949,2108
1776901244951,2120
1776901244953,2133
1776901244975,2142
1776901244977,2142
1776901244979,2143
1776901244981,2142
1776901244983,2143
1776901244985,2146
1776901244987,2149
1776901244989,2154
1776901244991,2160
1776901244993,2163
1776901244975,2165
1776901244977,2171
1776901244979,2174
1776901244981,2180
1776901244983,2181
1776901244985,2189
1776901244987,2200
1776901244989,2208
1776901244991,2218
1776901244993,2222
1776901245020,2226
1776901245022,2225
1776901245024,2223
1776901245026,2219
1776901245028,2218
1776901245030,2219
1776901245032,2226
1776901245034,2231
1776901245036,2236
1776901245038,2239
1776901245020,2244
1776901245022,2252
1776901245024,2255
1776901245026,2259
1776901245028,2257
1776901245030,2260
1776901245032,2263
1776901245034,2271
1776901245036,2280
1776901245038,2288
1776901245065,2293
1776901245067,2307
1776901245069,2307
1776901245071,2308
1776901245073,2308
1776901245075,2314
1776901245077,2321
1776901245079,2328
1776901245081,2336
1776901245083,2345
1776901245065,2350
1776901245067,2358
1776901245069,2361
1776901245071,2358
1776901245073,2360
1776901245075,2360
1776901245077,2363
1776901245079,2370
1776901245081,2382
1776901245083,2393
1776901245110,2400
1776901245112,2406
1776901245114,2411
1776901245116,2411
1776901245118,2415
1776901245120,2419
1776901245122,2422
1776901245124,2425
1776901245126,2428
1776901245128,2437
1776901245110,2447
1776901245112,2453
1776901245114,2458
1776901245116,2461
1776901245118,2459
1776901245120,2460
1776901245122,2461
1776901245124,2466
1776901245126,2464
1776901245128,2468
1776901245110,2476
1776901245112,2479
1776901245114,2482
1776901245116,2480
1776901245118,2480
1776901245120,2480
1776901245122,2479
1776901245124,2485
1776901245126,2488
1776901245128,2492
1776901245160,2492
1776901245162,2491
1776901245164,2489
1776901245166,2476
1776901245168,2472
1776901245170,2466
1776901245172,2462
1776901245174,2461
1776901245176,2463
1776901245178,2467
1776901245160,2466
1776901245162,2469
1776901245164,2469
1776901245166,2512
1776901245168,2471
1776901245170,2473
1776901245172,2476
1776901245174,2478
1776901245176,2479
1776901245178,2477
1776901245200,2476
1776901245202,2470
1776901245204,2468
1776901245206,2459
1776901245208,2457
1776901245210,2452
1776901245212,2450
1776901245214,2454
1776901245216,2453
1776901245218,2452
1776901245200,2452
1776901245202,2449
1776901245204,2456
1776901245206,2458
1776901245208,2462
1776901245210,2464
1776901245212,2468
1776901245214,2471
1776901245216,2472
1776901245218,2471
1776901245255,2471
1776901245257,2475
1776901245259,2479
1776901245261,2485
1776901245263,2491
1776901245265,2501
1776901245267,2511
1776901245269,2525
1776901245271,2538
1776901245273,2547
1776901245255,2551
1776901245257,2556
1776901245259,2553
1776901245261,2547
1776901245263,2543
1776901245265,2539
1776901245267,2537
1776901245269,2544
1776901245271,2554
1776901245273,2575
1776901245255,2599
1776901245257,2621
1776901245259,2644
1776901245261,2658
1776901245263,2667
1776901245265,2671
1776901245267,2675
1776901245269,2673
1776901245271,2669
1776901245273,2664
1776901245291,2655
1776901245293,2644
1776901245295,2637
1776901245297,2624
1776901245299,2614
1776901245301,2608
1776901245303,2609
1776901245305,2611
1776901245307,2617
1776901245309,2618
1776901245335,2613
1776901245337,2611
1776901245339,2609
1776901245341,2604
1776901245343,2604
1776901245345,2606
1776901245347,2607
1776901245349,2609
1776901245351,2609
1776901245353,2610
1776901245335,2614
1776901245337,2615
1776901245339,2612
1776901245341,2617
1776901245343,2609
1776901245345,2612
1776901245347,2610
1776901245349,2612
1776901245351,2616
1776901245353,2618
1776901245335,2620
1776901245337,2623
1776901245339,2623
1776901245341,2621
1776901245343,2619
1776901245345,2618
1776901245347,2615
1776901245349,2613
1776901245351,2613
1776901245353,2611
1776901245383,2609
1776901245385,2610
1776901245387,2607
1776901245389,2603
1776901245391,2603
1776901245393,2608
1776901245395,2612
1776901245397,2616
1776901245399,2618
1776901245401,2617
1776901245383,2611
1776901245385,2602
1776901245387,2586
1776901245389,2559
1776901245391,2536
1776901245393,2519
1776901245395,2507
1776901245397,2498
1776901245399,2494
1776901245401,2498
1776901245425,2500
1776901245427,2524
1776901245429,2574
1776901245431,2659
1776901245433,2786
1776901245435,2951
1776901245437,3130
1776901245439,3302
1776901245441,3452
1776901245443,3554
1776901245425,3597
1776901245427,3575
1776901245429,3506
1776901245431,3414
1776901245433,3329
1776901245435,3253
1776901245437,3177
1776901245439,3104
1776901245441,3051
1776901245443,3030
1776901245425,3031
1776901245427,3033
1776901245429,3019
1776901245431,2977
1776901245433,2928
1776901245435,2896
1776901245437,2877
1776901245439,2861
1776901245441,2837
1776901245443,2808
1776901245479,2773
1776901245481,2734
1776901245483,2680
1776901245485,2626
1776901245487,2580
1776901245489,2548
1776901245491,2522
1776901245493,2497
1776901245495,2470
1776901245497,2444
1776901245479,2417
1776901245481,2395
1776901245483,2381
1776901245485,2373
1776901245487,2366
1776901245489,2370
1776901245491,2373
1776901245493,2375
1776901245495,2379
1776901245497,2380
1776901245515,2379
1776901245517,2375
1776901245519,2372
1776901245521,2375
1776901245523,2358
1776901245525,2356
1776901245527,2357
1776901245529,2360
1776901245531,2364
1776901245533,2368
1776901245515,2367
1776901245517,2365
1776901245519,2363
1776901245521,2358
1776901245523,2353
1776901245525,2354
1776901245527,2353
1776901245529,2351
1776901245531,2358
1776901245533,2355
1776901245560,2351
1776901245562,2351
1776901245564,2347
1776901245566,2342
1776901245568,2340
1776901245570,2343
1776901245572,2343
1776901245574,2346
1776901245576,2349
1776901245578,2351
1776901245560,2349
1776901245562,2350
1776901245564,2342
1776901245566,2337
1776901245568,2330
1776901245570,2331
1776901245572,2331
1776901245574,2331
1776901245576,2330
1776901245578,2327
1776901245607,2322
1776901245609,2315
1776901245611,2309
1776901245613,2299
1776901245615,2295
1776901245617,2294
1776901245619,2293
1776901245621,2298
1776901245623,2305
1776901245625,2310
1776901245607,2313
1776901245609,2313
1776901245611,2310
1776901245613,2308
1776901245615,2309
1776901245617,2310
1776901245619,2311
1776901245621,2311
1776901245623,2313
1776901245625,2313
1776901245607,2309
1776901245609,2310
1776901245611,2306
1776901245613,2305
1776901245615,2305
1776901245617,2311
1776901245619,2318
1776901245621,2323
1776901245623,2329
1776901245625,2331
1776901245650,2333
1776901245652,2329
1776901245654,2326
1776901245656,2314
1776901245658,2306
1776901245660,2306
1776901245662,2305
1776901245664,2304
1776901245666,2308
1776901245668,2312
1776901245650,2314
1776901245652,2317
1776901245654,2316
1776901245656,2315
1776901245658,2315
1776901245660,2314
1776901245662,2321
1776901245664,2325
1776901245666,2327
1776901245668,2329
1776901245703,2328
1776901245705,2322
1776901245707,2320
1776901245709,2327
1776901245711,2314
1776901245713,2313
1776901245715,2316
1776901245717,2320
1776901245719,2320
1776901245721,2322
1776901245703,2321
1776901245705,2320
1776901245707,2318
1776901245709,2316
1776901245711,2316
1776901245713,2314
1776901245715,2315
1776901245717,2316
1776901245719,2319
1776901245721,2320
1776901245740,2319
1776901245742,2321
1776901245744,2319
1776901245746,2318
1776901245748,2319
1776901245750,2319
1776901245752,2320
1776901245754,2323
1776901245756,2323
1776901245758,2322
1776901245740,2320
1776901245742,2321
1776901245744,2324
1776901245746,2324
1776901245748,2329
1776901245750,2334
1776901245752,2339
1776901245754,2345
1776901245756,2348
1776901245758,2355
1776901245785,2356
1776901245787,2359
1776901245789,2358
1776901245791,2355
1776901245793,2356
1776901245795,2361
1776901245797,2366
1776901245799,2369
1776901245801,2371
1776901245803,2372
1776901245785,2366
1776901245787,2365
1776901245789,2361
1776901245791,2360
1776901245793,2363
1776901245795,2370
1776901245797,2376
1776901245799,2382
1776901245801,2391
1776901245803,2397
1776901245832,2400
1776901245834,2398
1776901245836,2400
1776901245838,2399
1776901245840,2400
1776901245842,2401
1776901245844,2404
1776901245846,2405
1776901245848,2408
1776901245850,2411
1776901245832,2412
1776901245834,2408
1776901245836,2404
1776901245838,2397
1776901245840,2392
1776901245842,2390
1776901245844,2393
1776901245846,2397
1776901245848,2403
1776901245850,2407
1776901245832,2415
1776901245834,2419
1776901245836,2423
1776901245838,2417
1776901245840,2419
1776901245842,2419
1776901245844,2425
1776901245846,2426
1776901245848,2431
1776901245850,2435
1776901245875,2438
1776901245877,2437
1776901245879,2437
1776901245881,2439
1776901245883,2434
1776901245885,2435
1776901245887,2436
1776901245889,2436
1776901245891,2432
1776901245893,2435
1776901245875,2434
1776901245877,2436
1776901245879,2434
1776901245881,2432
1776901245883,2432
1776901245885,2435
1776901245887,2439
1776901245889,2440
1776901245891,2442
1776901245893,2440
1776901245928,2441
1776901245930,2435
1776901245932,2431
1776901245934,2427
1776901245936,2423
1776901245938,2423
1776901245940,2423
1776901245942,2429
1776901245944,2431
1776901245946,2428
1776901245928,2429
1776901245930,2420
1776901245932,2420
1776901245934,2415
1776901245936,2412
1776901245938,2409
1776901245940,2410
1776901245942,2414
1776901245944,2413
1776901245946,2417
1776901245965,2413
1776901245967,2411
1776901245969,2411
1776901245971,2419
1776901245973,2409
1776901245975,2409
1776901245977,2410
1776901245979,2411
1776901245981,2411
1776901245983,2420
1776901245965,2422
1776901245967,2427
1776901245969,2435
1776901245971,2439
1776901245973,2445
1776901245975,2453
1776901245977,2457
1776901245979,2457
1776901245981,2458
1776901245983,2455
1776901245965,2450
1776901245967,2442
1776901245969,2440
1776901245971,2444
1776901245973,2451
1776901245975,2465
1776901245977,2481
1776901245979,2491
1776901245981,2497
1776901245983,2495
1776901246010,2487
1776901246012,2471
1776901246014,2459
1776901246016,2443
1776901246018,2426
1776901246020,2414
1776901246022,2403
1776901246024,2392
1776901246026,2387
1776901246028,2382
1776901246010,2374
1776901246012,2367
1776901246014,2362
1776901246016,2358
1776901246018,2353
1776901246020,2350
1776901246022,2346
1776901246024,2340
1776901246026,2338
1776901246028,2335
1776901246056,2329
1776901246058,2322
1776901246060,2313
1776901246062,2309
1776901246064,2306
1776901246066,2308
1776901246068,2312
1776901246070,2313
1776901246072,2314
1776901246074,2313
1776901246056,2312
1776901246058,2307
1776901246060,2306
1776901246062,2300
1776901246064,2300
1776901246066,2301
1776901246068,2302
1776901246070,2306
1776901246072,2306
1776901246074,2303
1776901246100,2298
1776901246102,2295
1776901246104,2293
1776901246106,2289
1776901246108,2290
1776901246110,2290
1776901246112,2294
1776901246114,2299
1776901246116,2306
1776901246118,2305
1776901246100,2304
1776901246102,2303
1776901246104,2300
1776901246106,2297
1776901246108,2295
1776901246110,2287
1776901246112,2273
1776901246114,2251
1776901246116,2226
1776901246118,2208
1776901246151,2189
1776901246153,2180
1776901246155,2167
1776901246157,2165
1776901246159,2169
1776901246161,2193
1776901246163,2247
1776901246165,2341
1776901246167,2471
1776901246169,2638
1776901246151,2811
1776901246153,2964
1776901246155,3103
1776901246157,3209
1776901246159,3263
1776901246161,3257
1776901246163,3215
1776901246165,3176
1776901246167,3145
1776901246169,3112
1776901246151,3075
1776901246153,3044
1776901246155,3028
1776901246157,3005
1776901246159,2969
1776901246161,2899
1776901246163,2816
1776901246165,2735
1776901246167,2677
1776901246169,2644
1776901246190,2620
1776901246192,2605
1776901246194,2585
1776901246196,2541
1776901246198,2492
1776901246200,2443
1776901246202,2397
1776901246204,2351
1776901246206,2300
1776901246208,2239
1776901246190,2174
1776901246192,2115
1776901246194,2068
1776901246196,2040
1776901246198,2025
1776901246200,2022
1776901246202,2026
1776901246204,2032
1776901246206,2040
1776901246208,2040
1776901246235,2036
1776901246237,2031
1776901246239,2026
1776901246241,2029
1776901246243,2021
1776901246245,2022
1776901246247,2020
1776901246249,2020
1776901246251,2021
1776901246253,2019
1776901246235,2018
1776901246237,2011
1776901246239,2009
1776901246241,2008
1776901246243,2008
1776901246245,2012
1776901246247,2017
1776901246249,2023
1776901246251,2025
1776901246253,2024
1776901246280,2018
1776901246282,2015
1776901246284,2008
1776901246286,2007
1776901246288,2007
1776901246290,2008
1776901246292,2007
1776901246294,2007
1776901246296,2007
1776901246298,2004
1776901246280,1999
1776901246282,1995
1776901246284,1995
1776901246286,1996
1776901246288,1998
1776901246290,2004
1776901246292,2009
1776901246294,2017
1776901246296,2024
1776901246298,2029
1776901246326,2032
1776901246328,2029
1776901246330,2033
1776901246332,2036
1776901246334,2040
1776901246336,2044
1776901246338,2048
1776901246340,2052
1776901246342,2051
1776901246344,2053
1776901246326,2049
1776901246328,2044
1776901246330,2041
1776901246332,2044
1776901246334,2052
1776901246336,2061
1776901246338,2069
1776901246340,2075
1776901246342,2083
1776901246344,2089
1776901246326,2090
1776901246328,2092
1776901246330,2094
1776901246332,2092
1776901246334,2095
1776901246336,2101
1776901246338,2103
1776901246340,2104
1776901246342,2105
1776901246344,2107
1776901246375,2110
1776901246377,2109
1776901246379,2109
1776901246381,2106
1776901246383,2106
1776901246385,2107
1776901246387,2108
1776901246389,2111
1776901246391,2109
1776901246393,2110
1776901246375,2107
1776901246377,2104
1776901246379,2103
1776901246381,2103
1776901246383,2108
1776901246385,2113
1776901246387,2118
1776901246389,2123
1776901246391,2128
1776901246393,2125
1776901246415,2123
1776901246417,2119
1776901246419,2116
1776901246421,2121
1776901246423,2113
1776901246425,2117
1776901246427,2118
1776901246429,2120
1776901246431,2122
1776901246433,2120
1776901246415,2117
1776901246417,2116
1776901246419,2111
1776901246421,2107
1776901246423,2103
1776901246425,2103
1776901246427,2100
1776901246429,2099
1776901246431,2096
1776901246433,2093
1776901246471,2092
1776901246473,2085
1776901246475,2077
1776901246477,2076
1776901246479,2077
1776901246481,2080
1776901246483,2077
1776901246485,2083
1776901246487,2081
1776901246489,2079
1776901246471,2078
1776901246473,2074
1776901246475,2072
1776901246477,2076
1776901246479,2078
1776901246481,2082
1776901246483,2086
1776901246485,2087
1776901246487,2087
1776901246489,2089
1776901246505,2091
1776901246507,2090
1776901246509,2091
1776901246511,2092
1776901246513,2094
1776901246515,2094
1776901246517,2098
1776901246519,2105
1776901246521,2110
1776901246523,2118
1776901246505,2116
1776901246507,2121
1776901246509,2119
1776901246511,2121
1776901246513,2123
1776901246515,2129
1776901246517,2137
1776901246519,2141
1776901246521,2143
1776901246523,2144
1776901246551,2142
1776901246553,2142
1776901246555,2141
1776901246557,2147
1776901246559,2155
1776901246561,2165
1776901246563,2173
1776901246565,2179
1776901246567,2184
1776901246569,2188
1776901246551,2187
1776901246553,2181
1776901246555,2182
1776901246557,2178
1776901246559,2177
1776901246561,2180
1776901246563,2180
1776901246565,2184
1776901246567,2188
1776901246569,2193
1776901246551,2194
1776901246553,2192
1776901246555,2192
1776901246557,2192
1776901246559,2198
1776901246561,2204
1776901246563,2212
1776901246565,2217
1776901246567,2222
1776901246569,2223
1776901246599,2223
1776901246601,2220
1776901246603,2217
1776901246605,2212
1776901246607,2212
1776901246609,2210
1776901246611,2208
1776901246613,2205
1776901246615,2204
1776901246617,2202
1776901246599,2199
1776901246601,2198
1776901246603,2195
1776901246605,2242
1776901246607,2197
1776901246609,2198
1776901246611,2197
1776901246613,2200
1776901246615,2202
1776901246617,2203
1776901246640,2204
1776901246642,2205
1776901246644,2209
1776901246646,2209
1776901246648,2213
1776901246650,2218
1776901246652,2217
1776901246654,2220
1776901246656,2224
1776901246658,2224
1776901246640,2226
1776901246642,2222
1776901246644,2221
1776901246646,2221
1776901246648,2226
1776901246650,2231
1776901246652,2236
1776901246654,2241
1776901246656,2249
1776901246658,2248
1776901246695,2246
1776901246697,2248
1776901246699,2245
1776901246701,2246
1776901246703,2249
1776901246705,2254
1776901246707,2257
1776901246709,2259
1776901246711,2256
1776901246713,2256
1776901246695,2251
1776901246697,2254
1776901246699,2253
1776901246701,2262
1776901246703,2272
1776901246705,2285
1776901246707,2299
1776901246709,2311
1776901246711,2320
1776901246713,2329
1776901246695,2333
1776901246697,2329
1776901246699,2324
1776901246701,2318
1776901246703,2317
1776901246705,2316
1776901246707,2316
1776901246709,2319
1776901246711,2331
1776901246713,2342
1776901246730,2358
1776901246732,2370
1776901246734,2379
1776901246736,2381
1776901246738,2380
1776901246740,2376
1776901246742,2369
1776901246744,2360
1776901246746,2350
1776901246748,2339
1776901246730,2324
1776901246732,2316
1776901246734,2303
1776901246736,2295
1776901246738,2289
1776901246740,2289
1776901246742,2284
1776901246744,2283
1776901246746,2279
1776901246748,2276
1776901246775,2269
1776901246777,2260
1776901246779,2257
1776901246781,2261
1776901246783,2255
1776901246785,2254
1776901246787,2254
1776901246789,2256
1776901246791,2258
1776901246793,2261
1776901246775,2264
1776901246777,2265
1776901246779,2269
1776901246781,2274
1776901246783,2279
1776901246785,2285
1776901246787,2289
1776901246789,2296
1776901246791,2298
1776901246793,2296
1776901246823,2293
1776901246825,2291
1776901246827,2287
1776901246829,2288
1776901246831,2291
1776901246833,2292
1776901246835,2298
1776901246837,2301
1776901246839,2302
1776901246841,2301
1776901246823,2299
1776901246825,2294
1776901246827,2287
1776901246829,2285
1776901246831,2287
1776901246833,2294
1776901246835,2297
1776901246837,2303
1776901246839,2303
1776901246841,2303
1776901246865,2292
1776901246867,2278
1776901246869,2252
1776901246871,2224
1776901246873,2202
1776901246875,2191
1776901246877,2186
1776901246879,2182
1776901246881,2179
1776901246883,2181
1776901246865,2192
1776901246867,2227
1776901246869,2301
1776901246871,2411
1776901246873,2556
1776901246875,2717
1776901246877,2871
1776901246879,3011
1776901246881,3125
1776901246883,3199
1776901246865,3204
1776901246867,3165
1776901246869,3119
1776901246871,3089
1776901246873,3072
1776901246875,3055
1776901246877,3043
1776901246879,3045
1776901246881,3053
1776901246883,3053
1776901246920,3020
1776901246922,2955
1776901246924,2882
1776901246926,2822
1776901246928,2773
1776901246930,2741
1776901246932,2716
1776901246934,2689
1776901246936,2652
1776901246938,2607
1776901246920,2547
1776901246922,2498
1776901246924,2446
1776901246926,2392
1776901246928,2334
1776901246930,2274
1776901246932,2220
1776901246934,2174
1776901246936,2140
1776901246938,2119
1776901246955,2111
1776901246957,2106
1776901246959,2110
1776901246961,2111
1776901246963,2118
1776901246965,2121
1776901246967,2121
1776901246969,2121
1776901246971,2125
1776901246973,2122
1776901246955,2121
1776901246957,2122
1776901246959,2124
1776901246961,2135
1776901246963,2144
1776901246965,2152
1776901246967,2161
1776901246969,2172
1776901246971,2183
1776901246973,2190
1776901247000,2192
1776901247002,2198
1776901247004,2201
1776901247006,2205
1776901247008,2210
1776901247010,2212
1776901247012,2207
1776901247014,2205
1776901247016,2203
1776901247018,2202
1776901247047,2200
1776901247049,2201
1776901247051,2204
1776901247053,2211
1776901247055,2221
1776901247057,2233
1776901247059,2240
1776901247061,2245
1776901247063,2249
1776901247065,2251
1776901247047,2246
1776901247049,2239
1776901247051,2233
1776901247053,2231
1776901247055,2227
1776901247057,2228
1776901247059,2231
1776901247061,2234
1776901247063,2234
1776901247065,2234
1776901247090,2229
1776901247092,2227
1776901247094,2229
1776901247096,2232
1776901247098,2239
1776901247100,2246
1776901247102,2253
1776901247104,2260
1776901247106,2266
1776901247108,2273
1776901247090,2275
1776901247092,2281
1776901247094,2286
1776901247096,2297
1776901247098,2304
1776901247100,2309
1776901247102,2314
1776901247104,2316
1776901247106,2320
1776901247108,2320
1776901247090,2320
1776901247092,2318
1776901247094,2321
1776901247096,2325
1776901247098,2332
1776901247100,2338
1776901247102,2347
1776901247104,2356
1776901247106,2365
1776901247108,2374
1776901247090,2379
1776901247092,2386
1776901247094,2396
1776901247096,2401
1776901247098,2410
1776901247100,2417
1776901247102,2422
1776901247104,2426
1776901247106,2429
1776901247108,2429
1776901247180,2428
1776901247182,2425
1776901247184,2425
1776901247186,2427
1776901247188,2428
1776901247190,2434
1776901247192,2436
1776901247194,2440
1776901247196,2441
1776901247198,2445
1776901247180,2446
1776901247182,2452
1776901247184,2457
1776901247186,2460
1776901247188,2465
1776901247190,2471
1776901247192,2473
1776901247194,2477
1776901247196,2481
1776901247198,2487
1776901247180,2488
1776901247182,2492
1776901247184,2492
1776901247186,2498
1776901247188,2504
1776901247190,2507
1776901247192,2513
1776901247194,2516
1776901247196,2515
1776901247198,2515
1776901247180,2515
1776901247182,2513
1776901247184,2512
1776901247186,2515
1776901247188,2520
1776901247190,2522
1776901247192,2528
1776901247194,2534
1776901247196,2537
1776901247198,2540
1776901247225,2540
1776901247227,2541
1776901247229,2539
1776901247231,2541
1776901247233,2545
1776901247235,2545
1776901247237,2549
1776901247239,2552
1776901247241,2552
1776901247243,2551
1776901247225,2549
1776901247227,2544
1776901247229,2539
1776901247231,2538
1776901247233,2539
1776901247235,2543
1776901247237,2543
1776901247239,2543
1776901247241,2541
1776901247243,2537
1776901247271,2537
1776901247273,2535
1776901247275,2534
1776901247277,2542
1776901247279,2538
1776901247281,2538
1776901247283,2541
1776901247285,2541
1776901247287,2541
1776901247289,2541
1776901247271,2538
1776901247273,2532
1776901247275,2526
1776901247277,2523
1776901247279,2521
1776901247281,2518
1776901247283,2516
1776901247285,2513
1776901247287,2511
1776901247289,2507
1776901247271,2506
1776901247273,2505
1776901247275,2504
1776901247277,2506
1776901247279,2512
1776901247281,2518
1776901247283,2522
1776901247285,2524
1776901247287,2526
1776901247289,2526
1776901247315,2523
1776901247317,2524
1776901247319,2523
1776901247321,2523
1776901247323,2528
1776901247325,2528
1776901247327,2530
1776901247329,2531
1776901247331,2532
1776901247333,2532
1776901247315,2530
1776901247317,2529
1776901247319,2534
1776901247321,2539
1776901247323,2546
1776901247325,2549
1776901247327,2552
1776901247329,2556
1776901247331,2556
1776901247333,2554
1776901247367,2549
1776901247369,2547
1776901247371,2547
1776901247373,2550
1776901247375,2556
1776901247377,2562
1776901247379,2568
1776901247381,2568
1776901247383,2565
1776901247385,2562
1776901247367,2560
1776901247369,2555
1776901247371,2555
1776901247373,2554
1776901247375,2553
1776901247377,2553
1776901247379,2552
1776901247381,2552
1776901247383,2553
1776901247385,2554
1776901247405,2550
1776901247407,2552
1776901247409,2551
1776901247411,2555
1776901247413,2562
1776901247415,2570
1776901247417,2579
1776901247419,2585
1776901247421,2588
1776901247423,2591
1776901247405,2584
1776901247407,2584
1776901247409,2579
1776901247411,2575
1776901247413,2578
1776901247415,2583
1776901247417,2587
1776901247419,2594
1776901247421,2601
1776901247423,2606
1776901247405,2609
1776901247407,2610
1776901247409,2615
1776901247411,2618
1776901247413,2618
1776901247415,2617
1776901247417,2614
1776901247419,2607
1776901247421,2598
1776901247423,2590
1776901247452,2582
1776901247454,2576
1776901247456,2583
1776901247458,2596
1776901247460,2614
1776901247462,2635
1776901247464,2648
1776901247466,2657
1776901247468,2658
1776901247470,2655
1776901247452,2646
1776901247454,2637
1776901247456,2629
1776901247458,2619
1776901247460,2616
1776901247462,2608
1776901247464,2601
1776901247466,2593
1776901247468,2587
1776901247470,2581
1776901247502,2569
1776901247504,2559
1776901247506,2552
1776901247508,2550
1776901247510,2539
1776901247512,2532
1776901247514,2527
1776901247516,2524
1776901247518,2524
1776901247520,2524
1776901247502,2520
1776901247504,2511
1776901247506,2509
1776901247508,2505
1776901247510,2505
1776901247512,2507
1776901247514,2510
1776901247516,2518
1776901247518,2518
1776901247520,2519
1776901247540,2515
1776901247542,2508
1776901247544,2505
1776901247546,2503
1776901247548,2505
1776901247550,2505
1776901247552,2505
1776901247554,2509
1776901247556,2509
1776901247558,2510
1776901247540,2507
1776901247542,2506
1776901247544,2508
1776901247546,2510
1776901247548,2513
1776901247550,2516
1776901247552,2518
1776901247554,2520
1776901247556,2520
1776901247558,2520
1776901247591,2518
1776901247593,2518
1776901247595,2514
1776901247597,2512
1776901247599,2503
1776901247601,2492
1776901247603,2471
1776901247605,2448
1776901247607,2428
1776901247609,2407
1776901247591,2391
1776901247593,2379
1776901247595,2376
1776901247597,2381
1776901247599,2405
1776901247601,2458
1776901247603,2544
1776901247605,2669
1776901247607,2819
1776901247609,2981
1776901247591,3126
1776901247593,3252
1776901247595,3355
1776901247597,3403
1776901247599,3391
1776901247601,3342
1776901247603,3295
1776901247605,3263
1776901247607,3241
1776901247609,3215
1776901247636,3195
1776901247638,3193
1776901247640,3201
1776901247642,3200
1776901247644,3161
1776901247646,3091
1776901247648,3021
1776901247650,2963
1776901247652,2920
1776901247654,2888
1776901247636,2861
1776901247638,2832
1776901247640,2791
1776901247642,2738
1776901247644,2686
1776901247646,2630
1776901247648,2580
1776901247650,2530
1776901247652,2473
1776901247654,2416
1776901247675,2365
1776901247677,2323
1776901247679,2298
1776901247681,2297
1776901247683,2285
1776901247685,2286
1776901247687,2288
1776901247689,2290
1776901247691,2293
1776901247693,2291
1776901247675,2284
1776901247677,2281
1776901247679,2281
1776901247681,2284
1776901247683,2287
1776901247685,2296
1776901247687,2299
1776901247689,2303
1776901247691,2305
1776901247693,2305
1776901247720,2304
1776901247722,2302
1776901247724,2301
1776901247726,2304
1776901247728,2310
1776901247730,2315
1776901247732,2316
1776901247734,2319
1776901247736,2320
1776901247738,2313
1776901247720,2307
1776901247722,2310
1776901247724,2311
1776901247726,2316
1776901247728,2322
1776901247730,2324
1776901247732,2326
1776901247734,2324
1776901247736,2319
1776901247738,2316
1776901247765,2307
1776901247767,2299
1776901247769,2301
1776901247771,2307
1776901247773,2317
1776901247775,2323
1776901247777,2331
1776901247779,2334
1776901247781,2338
1776901247783,2337
1776901247765,2330
1776901247767,2322
1776901247769,2323
1776901247771,2324
1776901247773,2330
1776901247775,2333
1776901247777,2339
1776901247779,2342
1776901247781,2344
1776901247783,2344
1776901247767,2341
1776901247769,2345
1776901247771,2349
1776901247773,2353
1776901247775,2358
1776901247777,2362
1776901247779,2365
1776901247781,2368
1776901247783,2370
1776901247785,2370
1776901247819,2365
1776901247821,2364
1776901247823,2367
1776901247825,2375
1776901247827,2378
1776901247829,2388
1776901247831,2396
1776901247833,2400
1776901247835,2407
1776901247837,2411
1776901247819,2413
1776901247821,2411
1776901247823,2421
1776901247825,2424
1776901247827,2427
1776901247829,2425
1776901247831,2427
1776901247833,2426
1776901247835,2427
1776901247837,2427
1776901247869,2423
1776901247871,2426
1776901247873,2427
1776901247875,2441
1776901247877,2435
1776901247879,2436
1776901247881,2440
1776901247883,2442
1776901247885,2444
1776901247887,2441
1776901247869,2435
1776901247871,2433
1776901247873,2434
1776901247875,2439
1776901247877,2443
1776901247879,2447
1776901247881,2453
1776901247883,2454
1776901247885,2456
1776901247887,2450
1776901247902,2442
1776901247904,2438
1776901247906,2438
1776901247908,2436
1776901247910,2439
1776901247912,2439
1776901247914,2440
1776901247916,2443
1776901247918,2442
1776901247920,2440
1776901247902,2436
1776901247904,2435
1776901247906,2437
1776901247908,2441
1776901247910,2443
1776901247912,2448
1776901247914,2449
1776901247916,2450
1776901247918,2450
1776901247920,2451
1776901247952,2442
1776901247954,2442
1776901247956,2440
1776901247958,2438
1776901247960,2439
1776901247962,2442
1776901247964,2445
1776901247966,2451
1776901247968,2451
1776901247970,2451
1776901247952,2447
1776901247954,2445
1776901247956,2442
1776901247958,2442
1776901247960,2441
1776901247962,2440
1776901247964,2442
1776901247966,2443
1776901247968,2447
1776901247970,2443
1776901247990,2443
1776901247992,2438
1776901247994,2439
1776901247996,2441
1776901247998,2445
1776901248000,2449
1776901248002,2452
1776901248004,2452
1776901248006,2452
1776901248008,2451
1776901248040,2447
1776901248042,2436
1776901248044,2434
1776901248046,2427
1776901248048,2418
1776901248050,2413
1776901248052,2407
1776901248054,2402
1776901248056,2399
1776901248058,2393
1776901248040,2388
1776901248042,2384
1776901248044,2388
1776901248046,2393
1776901248048,2396
1776901248050,2398
1776901248052,2398
1776901248054,2404
1776901248056,2403
1776901248058,2401
1776901248040,2398
1776901248042,2391
1776901248044,2386
1776901248046,2383
1776901248048,2382
1776901248050,2380
1776901248052,2375
1776901248054,2374
1776901248056,2367
1776901248058,2367
1776901248040,2366
1776901248042,2369
1776901248044,2372
1776901248046,2375
1776901248048,2375
1776901248050,2374
1776901248052,2374
1776901248054,2374
1776901248056,2370
1776901248058,2366
1776901248081,2365
1776901248083,2363
1776901248085,2371
1776901248087,2377
1776901248089,2382
1776901248091,2388
1776901248093,2388
1776901248095,2393
1776901248097,2391
1776901248099,2387
1776901248081,2385
1776901248083,2383
1776901248085,2389
1776901248087,2394
1776901248089,2404
1776901248091,2407
1776901248093,2409
1776901248095,2410
1776901248097,2409
1776901248099,2405
1776901248136,2397
1776901248138,2401
1776901248140,2400
1776901248142,2405
1776901248144,2409
1776901248146,2418
1776901248148,2431
1776901248150,2442
1776901248152,2454
1776901248154,2463
1776901248136,2469
1776901248138,2477
1776901248140,2483
1776901248142,2490
1776901248144,2497
1776901248146,2500
1776901248148,2501
1776901248150,2501
1776901248152,2498
1776901248154,2489
1776901248136,2484
1776901248138,2481
1776901248140,2486
1776901248142,2501
1776901248144,2521
1776901248146,2545
1776901248148,2568
1776901248150,2587
1776901248152,2592
1776901248154,2591
1776901248170,2584
1776901248172,2573
1776901248174,2559
1776901248176,2549
1776901248178,2540
1776901248180,2527
1776901248182,2518
1776901248184,2509
