timestamp_ms,ecg_raw
1776901652727,2159
1776901652729,2191
1776901652731,2217
1776901652733,2234
1776901652735,2242
1776901652737,2214
1776901652739,2262
1776901652741,2297
1776901652743,2329
1776901652745,2346
1776901652727,2342
1776901652729,2342
1776901652731,2333
1776901652733,2324
1776901652735,2316
1776901652737,2314
1776901652739,2315
1776901652741,2322
1776901652743,2338
1776901652745,2364
1776901652770,2397
1776901652772,2436
1776901652774,2464
1776901652776,2484
1776901652778,2488
1776901652780,2495
1776901652782,2497
1776901652784,2492
1776901652786,2491
1776901652788,2551
1776901652770,2592
1776901652772,2615
1776901652774,2622
1776901652776,2603
1776901652778,2564
1776901652780,2519
1776901652782,2478
1776901652784,2444
1776901652786,2427
1776901652788,2417
1776901652822,2412
1776901652824,2420
1776901652826,2422
1776901652828,2418
1776901652830,2405
1776901652832,2384
1776901652834,2363
1776901652836,2342
1776901652838,2326
1776901652840,2313
1776901652822,2270
1776901652824,2321
1776901652826,2353
1776901652828,2365
1776901652830,2338
1776901652832,2291
1776901652834,2227
1776901652836,2168
1776901652838,2120
1776901652840,2087
1776901652822,2062
1776901652824,2055
1776901652826,2050
1776901652828,2043
1776901652830,2035
1776901652832,2025
1776901652834,2014
1776901652836,2000
1776901652838,1999
1776901652840,1997
1776901652860,2017
1776901652862,2030
1776901652864,2037
1776901652866,2019
1776901652868,2075
1776901652870,2105
1776901652872,2106
1776901652874,2088
1776901652876,2057
1776901652878,2026
1776901652860,1994
1776901652862,1975
1776901652864,1958
1776901652866,1946
1776901652868,1930
1776901652870,1922
1776901652872,1914
1776901652874,1913
1776901652876,1919
1776901652878,1934
1776901652917,1952
1776901652919,1978
1776901652921,1993
1776901652923,2003
1776901652925,2003
1776901652927,1974
1776901652929,2008
1776901652931,2030
1776901652933,2047
1776901652935,2050
1776901652917,2044
1776901652919,2039
1776901652921,2024
1776901652923,2003
1776901652925,1985
1776901652927,1970
1776901652929,1956
1776901652931,1952
1776901652933,1959
1776901652935,1970
1776901652951,1991
1776901652953,2011
1776901652955,2036
1776901652957,2052
1776901652959,2052
1776901652961,2056
1776901652963,2053
1776901652965,2040
1776901652967,2041
1776901652969,2098
1776901652951,2134
1776901652953,2157
1776901652955,2157
1776901652957,2139
1776901652959,2103
1776901652961,2081
1776901652963,2047
1776901652965,2027
1776901652967,2019
1776901652969,2024
1776901652951,2031
1776901652953,2054
1776901652955,2068
1776901652957,2077
1776901652959,2078
1776901652961,2082
1776901652963,2078
1776901652965,2083
1776901652967,2088
1776901652969,2096
1776901652996,2068
1776901652998,2130
1776901653000,2195
1776901653002,2227
1776901653004,2226
1776901653006,2196
1776901653008,2146
1776901653010,2099
1776901653012,2054
1776901653014,2031
1776901652996,2022
1776901652998,2019
1776901653000,2022
1776901653002,2024
1776901653004,2024
1776901653006,2026
1776901653008,2023
1776901653010,2021
1776901653012,2024
1776901653014,2033
1776901653044,2042
1776901653046,2060
1776901653048,2065
1776901653050,2061
1776901653052,2095
1776901653054,2114
1776901653056,2109
1776901653058,2093
1776901653060,2068
1776901653062,2051
1776901653044,2039
1776901653046,2040
1776901653048,2038
1776901653050,2033
1776901653052,2027
1776901653054,2019
1776901653056,2011
1776901653058,2013
1776901653060,2025
1776901653062,2043
1776901653085,2061
1776901653087,2091
1776901653089,2110
1776901653091,2119
1776901653093,2121
1776901653095,2091
1776901653097,2127
1776901653099,2151
1776901653101,2174
1776901653103,2180
1776901653085,2172
1776901653087,2153
1776901653089,2134
1776901653091,2113
1776901653093,2095
1776901653095,2085
1776901653097,2072
1776901653099,2071
1776901653101,2080
1776901653103,2094
1776901653141,2112
1776901653143,2136
1776901653145,2149
1776901653147,2153
1776901653149,2149
1776901653151,2147
1776901653153,2143
1776901653155,2133
1776901653157,2136
1776901653159,2199
1776901653220,2245
1776901653222,2285
1776901653224,2302
1776901653226,2303
1776901653228,2285
1776901653230,2277
1776901653232,2260
1776901653234,2249
1776901653236,2243
1776901653238,2241
1776901653220,2246
1776901653222,2259
1776901653224,2266
1776901653226,2265
1776901653228,2254
1776901653230,2238
1776901653232,2219
1776901653234,2209
1776901653236,2209
1776901653238,2218
1776901653235,2221
1776901653237,2255
1776901653239,2280
1776901653241,2287
1776901653243,2272
1776901653245,2244
1776901653247,2207
1776901653249,2172
1776901653251,2152
1776901653253,2142
1776901653235,2148
1776901653237,2160
1776901653239,2177
1776901653241,2187
1776901653243,2191
1776901653245,2191
1776901653247,2185
1776901653249,2187
1776901653251,2203
1776901653253,2218
1776901653268,2235
1776901653270,2259
1776901653272,2261
1776901653274,2277
1776901653276,2287
1776901653278,2290
1776901653280,2280
1776901653282,2267
1776901653284,2257
1776901653286,2252
1776901653268,2246
1776901653270,2253
1776901653272,2254
1776901653274,2257
1776901653276,2252
1776901653278,2249
1776901653280,2247
1776901653282,2249
1776901653284,2255
1776901653286,2266
1776901653268,2280
1776901653270,2289
1776901653272,2303
1776901653274,2300
1776901653276,2281
1776901653278,2218
1776901653280,2227
1776901653282,2275
1776901653284,2315
1776901653286,2336
1776901653268,2345
1776901653270,2362
1776901653272,2384
1776901653274,2424
1776901653276,2477
1776901653278,2564
1776901653280,2697
1776901653282,2871
1776901653284,3076
1776901653286,3298
1776901653310,3512
1776901653312,3720
1776901653314,3870
1776901653316,3936
1776901653318,3901
1776901653320,3760
1776901653322,3528
1776901653324,3235
1776901653326,2898
1776901653328,2634
1776901653310,2359
1776901653312,2114
1776901653314,1890
1776901653316,1697
1776901653318,1536
1776901653320,1433
1776901653322,1367
1776901653324,1335
1776901653326,1346
1776901653328,1384
1776901653364,1441
1776901653366,1506
1776901653368,1587
1776901653370,1652
1776901653372,1702
1776901653374,1756
1776901653376,1799
1776901653378,1849
1776901653380,1900
1776901653382,1951
1776901653364,1959
1776901653366,2040
1776901653368,2103
1776901653370,2138
1776901653372,2142
1776901653374,2126
1776901653376,2096
1776901653378,2068
1776901653380,2048
1776901653382,2038
1776901653364,2037
1776901653366,2056
1776901653368,2071
1776901653370,2086
1776901653372,2093
1776901653374,2096
1776901653376,2099
1776901653378,2106
1776901653380,2120
1776901653382,2136
1776901653400,2160
1776901653402,2191
1776901653404,2200
1776901653406,2187
1776901653408,2256
1776901653410,2290
1776901653412,2300
1776901653414,2288
1776901653416,2268
1776901653418,2241
1776901653400,2225
1776901653402,2214
1776901653404,2206
1776901653406,2199
1776901653408,2189
1776901653410,2190
1776901653412,2190
1776901653414,2199
1776901653416,2215
1776901653418,2238
1776901653460,2265
1776901653462,2299
1776901653464,2327
1776901653466,2339
1776901653468,2341
1776901653470,2305
1776901653472,2343
1776901653474,2378
1776901653476,2412
1776901653478,2428
1776901653460,2433
1776901653462,2447
1776901653464,2449
1776901653466,2443
1776901653468,2434
1776901653470,2433
1776901653472,2434
1776901653474,2443
1776901653476,2468
1776901653478,2493
1776901653493,2519
1776901653495,2554
1776901653497,2580
1776901653499,2597
1776901653501,2601
1776901653503,2600
1776901653505,2591
1776901653507,2581
1776901653509,2581
1776901653511,2639
1776901653493,2680
1776901653495,2693
1776901653497,2689
1776901653499,2660
1776901653501,2618
1776901653503,2576
1776901653505,2535
1776901653507,2508
1776901653509,2493
1776901653511,2487
1776901653535,2487
1776901653537,2486
1776901653539,2481
1776901653541,2463
1776901653543,2435
1776901653545,2409
1776901653547,2376
1776901653549,2357
1776901653551,2344
1776901653553,2338
1776901653535,2294
1776901653537,2342
1776901653539,2365
1776901653541,2369
1776901653543,2342
1776901653545,2293
1776901653547,2229
1776901653549,2174
1776901653551,2132
1776901653553,2105
1776901653535,2082
1776901653537,2081
1776901653539,2072
1776901653541,2057
1776901653543,2043
1776901653545,2033
1776901653547,2022
1776901653549,2015
1776901653551,2014
1776901653553,2022
1776901653588,2042
1776901653590,2056
1776901653592,2058
1776901653594,2032
1776901653596,2102
1776901653598,2120
1776901653600,2123
1776901653602,2108
1776901653604,2085
1776901653606,2053
1776901653588,2024
1776901653590,2010
1776901653592,1999
1776901653594,1988
1776901653596,1979
1776901653598,1973
1776901653600,1966
1776901653602,1968
1776901653604,1978
1776901653606,1986
1776901653625,1998
1776901653627,2020
1776901653629,2033
1776901653631,2039
1776901653633,2035
1776901653635,1998
1776901653637,2039
1776901653639,2062
1776901653641,2088
1776901653643,2099
1776901653625,2091
1776901653627,2091
1776901653629,2074
1776901653631,2055
1776901653633,2035
1776901653635,2023
1776901653637,2012
1776901653639,2010
1776901653641,2019
1776901653643,2033
1776901653683,2055
1776901653685,2074
1776901653687,2091
1776901653689,2100
1776901653691,2104
1776901653693,2106
1776901653695,2107
1776901653697,2103
1776901653699,2102
1776901653701,2168
1776901653683,2209
1776901653685,2231
1776901653687,2236
1776901653689,2218
1776901653691,2170
1776901653693,2134
1776901653695,2096
1776901653697,2076
1776901653699,2073
1776901653701,2086
1776901653683,2099
1776901653685,2125
1776901653687,2140
1776901653689,2143
1776901653691,2133
1776901653693,2123
1776901653695,2114
1776901653697,2119
1776901653699,2128
1776901653701,2146
1776901653716,2125
1776901653718,2192
1776901653720,2257
1776901653722,2285
1776901653724,2274
1776901653726,2245
1776901653728,2195
1776901653730,2154
1776901653732,2125
1776901653734,2107
1776901653716,2100
1776901653718,2095
1776901653720,2099
1776901653722,2100
1776901653724,2094
1776901653726,2092
1776901653728,2087
1776901653730,2090
1776901653732,2100
1776901653734,2118
1776901653760,2139
1776901653762,2159
1776901653764,2162
1776901653766,2155
1776901653768,2201
1776901653770,2224
1776901653772,2226
1776901653774,2215
1776901653776,2201
1776901653778,2182
1776901653760,2167
1776901653762,2161
1776901653764,2150
1776901653766,2137
1776901653768,2123
1776901653770,2116
1776901653772,2110
1776901653774,2113
1776901653776,2123
1776901653778,2134
1776901653812,2149
1776901653814,2174
1776901653816,2184
1776901653818,2190
1776901653820,2185
1776901653822,2149
1776901653824,2201
1776901653826,2231
1776901653828,2258
1776901653830,2260
1776901653812,2255
1776901653814,2231
1776901653816,2212
1776901653818,2183
1776901653820,2158
1776901653822,2139
1776901653824,2123
1776901653826,2122
1776901653828,2130
1776901653830,2143
1776901653850,2164
1776901653852,2183
1776901653854,2204
1776901653856,2216
1776901653858,2220
1776901653860,2219
1776901653862,2216
1776901653864,2208
1776901653866,2207
1776901653868,2267
1776901653850,2307
1776901653852,2331
1776901653854,2327
1776901653856,2309
1776901653858,2277
1776901653860,2247
1776901653862,2213
1776901653864,2193
1776901653866,2183
1776901653868,2188
1776901653907,2195
1776901653909,2212
1776901653911,2222
1776901653913,2228
1776901653915,2230
1776901653917,2237
1776901653919,2245
1776901653921,2262
1776901653923,2287
1776901653925,2316
1776901653907,2305
1776901653909,2367
1776901653911,2410
1776901653913,2421
1776901653915,2403
1776901653917,2370
1776901653919,2327
1776901653921,2288
1776901653923,2260
1776901653925,2244
1776901653907,2239
1776901653909,2239
1776901653911,2239
1776901653913,2230
1776901653915,2217
1776901653917,2215
1776901653919,2208
1776901653921,2212
1776901653923,2215
1776901653925,2219
1776901653940,2218
1776901653942,2223
1776901653944,2207
1776901653946,2172
1776901653948,2231
1776901653950,2263
1776901653952,2271
1776901653954,2266
1776901653956,2246
1776901653958,2217
1776901653940,2189
1776901653942,2173
1776901653944,2154
1776901653946,2137
1776901653948,2125
1776901653950,2117
1776901653952,2111
1776901653954,2115
1776901653956,2119
1776901653958,2132
1776901653985,2152
1776901653987,2166
1776901653989,2183
1776901653991,2183
1776901653993,2177
1776901653995,2139
1776901653997,2180
1776901653999,2213
1776901654001,2237
1776901654003,2243
1776901653985,2241
1776901653987,2231
1776901653989,2204
1776901653991,2177
1776901653993,2144
1776901653995,2122
1776901653997,2107
1776901653999,2099
1776901654001,2092
1776901654003,2093
1776901654036,2105
1776901654038,2131
1776901654040,2158
1776901654042,2185
1776901654044,2221
1776901654046,2280
1776901654048,2357
1776901654050,2452
1776901654052,2579
1776901654054,2802
1776901654036,3030
1776901654038,3268
1776901654040,3491
1776901654042,3696
1776901654044,3869
1776901654046,4001
1776901654048,4049
1776901654050,4014
1776901654052,3880
1776901654054,3663
1776901654075,3386
1776901654077,3052
1776901654079,2684
1776901654081,2312
1776901654083,1987
1776901654085,1752
1776901654087,1596
1776901654089,1513
1776901654091,1487
1776901654093,1511
1776901654075,1524
1776901654077,1627
1776901654079,1719
1776901654081,1788
1776901654083,1829
1776901654085,1848
1776901654087,1860
1776901654089,1877
1776901654091,1902
1776901654093,1937
1776901654075,1982
1776901654077,2033
1776901654079,2075
1776901654081,2112
1776901654083,2137
1776901654085,2157
1776901654087,2167
1776901654089,2179
1776901654091,2195
1776901654093,2213
1776901654132,2230
1776901654134,2253
1776901654136,2256
1776901654138,2231
1776901654140,2295
1776901654142,2331
1776901654144,2344
1776901654146,2337
1776901654148,2316
1776901654150,2287
1776901654132,2268
1776901654134,2245
1776901654136,2234
1776901654138,2221
1776901654140,2210
1776901654142,2210
1776901654144,2214
1776901654146,2231
1776901654148,2250
1776901654150,2270
1776901654166,2291
1776901654168,2320
1776901654170,2339
1776901654172,2342
1776901654174,2341
1776901654176,2307
1776901654178,2348
1776901654180,2384
1776901654182,2414
1776901654184,2433
1776901654166,2438
1776901654168,2439
1776901654170,2422
1776901654172,2402
1776901654174,2381
1776901654176,2370
1776901654178,2362
1776901654180,2368
1776901654182,2383
1776901654184,2412
1776901654210,2442
1776901654212,2476
1776901654214,2496
1776901654216,2512
1776901654218,2518
1776901654220,2523
1776901654222,2533
1776901654224,2538
1776901654226,2552
1776901654228,2629
1776901654210,2684
1776901654212,2711
1776901654214,2722
1776901654216,2705
1776901654218,2675
1776901654220,2654
1776901654222,2630
1776901654224,2618
1776901654226,2618
1776901654228,2623
1776901654259,2634
1776901654261,2651
1776901654263,2657
1776901654265,2652
1776901654267,2641
1776901654269,2632
1776901654271,2621
1776901654273,2620
1776901654275,2625
1776901654277,2636
1776901654259,2612
1776901654261,2665
1776901654263,2695
1776901654265,2700
1776901654267,2667
1776901654269,2620
1776901654271,2565
1776901654273,2515
1776901654275,2472
1776901654277,2438
1776901654259,2409
1776901654261,2391
1776901654263,2371
1776901654265,2348
1776901654267,2320
1776901654269,2291
1776901654271,2268
1776901654273,2252
1776901654275,2243
1776901654277,2246
1776901654300,2250
1776901654302,2242
1776901654304,2227
1776901654306,2187
1776901654308,2224
1776901654310,2244
1776901654312,2236
1776901654314,2212
1776901654316,2184
1776901654318,2152
1776901654300,2123
1776901654302,2101
1776901654304,2082
1776901654306,2061
1776901654308,2039
1776901654310,2028
1776901654312,2020
1776901654314,2025
1776901654316,2032
1776901654318,2048
1776901654355,2065
1776901654357,2085
1776901654359,2092
1776901654361,2093
1776901654363,2089
1776901654365,2061
1776901654367,2106
1776901654369,2146
1776901654371,2185
1776901654373,2206
1776901654355,2205
1776901654357,2193
1776901654359,2166
1776901654361,2133
1776901654363,2098
1776901654365,2071
1776901654367,2058
1776901654369,2057
1776901654371,2071
1776901654373,2093
1776901654390,2122
1776901654392,2143
1776901654394,2158
1776901654396,2158
1776901654398,2151
1776901654400,2146
1776901654402,2145
1776901654404,2145
1776901654406,2145
1776901654408,2214
1776901654390,2259
1776901654392,2285
1776901654394,2288
1776901654396,2264
1776901654398,2224
1776901654400,2195
1776901654402,2164
1776901654404,2151
1776901654406,2147
1776901654408,2152
1776901654390,2161
1776901654392,2175
1776901654394,2183
1776901654396,2181
1776901654398,2174
1776901654400,2170
1776901654402,2172
1776901654404,2183
1776901654406,2206
1776901654408,2229
1776901654435,2214
1776901654437,2267
1776901654439,2326
1776901654441,2351
1776901654443,2347
1776901654445,2320
1776901654447,2277
1776901654449,2237
1776901654451,2203
1776901654453,2183
1776901654435,2175
1776901654437,2168
1776901654439,2171
1776901654441,2166
1776901654443,2158
1776901654445,2154
1776901654447,2153
1776901654449,2157
1776901654451,2164
1776901654453,2178
1776901654483,2195
1776901654485,2208
1776901654487,2200
1776901654489,2184
1776901654491,2221
1776901654493,2239
1776901654495,2240
1776901654497,2240
1776901654499,2224
1776901654501,2217
1776901654483,2204
1776901654485,2192
1776901654487,2173
1776901654489,2152
1776901654491,2132
1776901654493,2121
1776901654495,2116
1776901654497,2119
1776901654499,2132
1776901654501,2149
1776901654525,2164
1776901654527,2183
1776901654529,2185
1776901654531,2178
1776901654533,2175
1776901654535,2145
1776901654537,2186
1776901654539,2222
1776901654541,2251
1776901654543,2262
1776901654525,2262
1776901654527,2242
1776901654529,2222
1776901654531,2199
1776901654533,2177
1776901654535,2155
1776901654537,2142
1776901654539,2140
1776901654541,2146
1776901654543,2162
1776901654579,2179
1776901654581,2196
1776901654583,2202
1776901654585,2204
1776901654587,2196
1776901654589,2191
1776901654591,2192
1776901654593,2192
1776901654595,2192
1776901654597,2258
1776901654579,2301
1776901654581,2331
1776901654583,2328
1776901654585,2311
1776901654587,2271
1776901654589,2244
1776901654591,2217
1776901654593,2196
1776901654595,2189
1776901654597,2190
1776901654615,2198
1776901654617,2205
1776901654619,2208
1776901654621,2207
1776901654623,2210
1776901654625,2213
1776901654627,2220
1776901654629,2239
1776901654631,2263
1776901654633,2288
1776901654615,2283
1776901654617,2349
1776901654619,2400
1776901654621,2431
1776901654623,2428
1776901654625,2409
1776901654627,2380
1776901654629,2354
1776901654631,2337
1776901654633,2328
1776901654615,2325
1776901654617,2321
1776901654619,2313
1776901654621,2303
1776901654623,2287
1776901654625,2276
1776901654627,2268
1776901654629,2272
1776901654631,2283
1776901654633,2299
1776901654660,2309
1776901654662,2322
1776901654664,2303
1776901654666,2259
1776901654668,2301
1776901654670,2314
1776901654672,2314
1776901654674,2297
1776901654676,2272
1776901654678,2234
1776901654660,2204
1776901654662,2186
1776901654664,2162
1776901654666,2142
1776901654668,2119
1776901654670,2103
1776901654672,2098
1776901654674,2103
1776901654676,2116
1776901654678,2127
1776901654707,2151
1776901654709,2158
1776901654711,2166
1776901654713,2163
1776901654715,2157
1776901654717,2120
1776901654719,2170
1776901654721,2205
1776901654723,2233
1776901654725,2247
1776901654707,2241
1776901654709,2224
1776901654711,2196
1776901654713,2162
1776901654715,2129
1776901654717,2115
1776901654719,2105
1776901654721,2111
1776901654723,2125
1776901654725,2146
1776901654750,2161
1776901654752,2172
1776901654754,2167
1776901654756,2152
1776901654758,2139
1776901654760,2147
1776901654762,2162
1776901654764,2188
1776901654766,2228
1776901654768,2359
1776901654750,2486
1776901654752,2614
1776901654754,2737
1776901654756,2872
1776901654758,3022
1776901654760,3209
1776901654762,3403
1776901654764,3605
1776901654766,3802
1776901654768,3958
1776901654803,4039
1776901654805,4005
1776901654807,3864
1776901654809,3608
1776901654811,3300
1776901654813,2958
1776901654815,2600
1776901654817,2264
1776901654819,1996
1776901654821,1813
1776901654803,1666
1776901654805,1643
1776901654807,1650
1776901654809,1669
1776901654811,1687
1776901654813,1698
1776901654815,1714
1776901654817,1736
1776901654819,1768
1776901654821,1811
1776901654803,1863
1776901654805,1920
1776901654807,1965
1776901654809,2005
1776901654811,2039
1776901654813,2077
1776901654815,2113
1776901654817,2148
1776901654819,2186
1776901654821,2225
1776901654840,2255
1776901654842,2275
1776901654844,2268
1776901654846,2229
1776901654848,2288
1776901654850,2317
1776901654852,2333
1776901654854,2332
1776901654856,2317
1776901654858,2292
1776901654840,2274
1776901654842,2247
1776901654844,2228
1776901654846,2211
1776901654848,2195
1776901654850,2193
1776901654852,2196
1776901654854,2208
1776901654856,2229
1776901654858,2257
1776901654900,2276
1776901654902,2297
1776901654904,2308
1776901654906,2315
1776901654908,2315
1776901654910,2286
1776901654912,2334
1776901654914,2376
1776901654916,2409
1776901654918,2424
1776901654900,2423
1776901654902,2416
1776901654904,2400
1776901654906,2378
1776901654908,2352
1776901654910,2338
1776901654912,2331
1776901654914,2342
1776901654916,2360
1776901654918,2392
1776901654930,2418
1776901654932,2447
1776901654934,2464
1776901654936,2473
1776901654938,2480
1776901654940,2492
1776901654942,2506
1776901654944,2519
1776901654946,2527
1776901654948,2603
1776901654930,2656
1776901654932,2677
1776901654934,2677
1776901654936,2651
1776901654938,2614
1776901654940,2587
1776901654942,2569
1776901654944,2563
1776901654946,2574
1776901654948,2592
1776901654976,2613
1776901654978,2631
1776901654980,2639
1776901654982,2642
1776901654984,2636
1776901654986,2633
1776901654988,2633
1776901654990,2636
1776901654992,2643
1776901654994,2652
1776901654976,2620
1776901654978,2673
1776901654980,2701
1776901654982,2708
1776901654984,2685
1776901654986,2647
1776901654988,2594
1776901654990,2546
1776901654992,2506
1776901654994,2471
1776901654976,2446
1776901654978,2426
1776901654980,2404
1776901654982,2381
1776901654984,2355
1776901654986,2331
1776901654988,2318
1776901654990,2304
1776901654992,2300
1776901654994,2302
1776901655028,2305
1776901655030,2298
1776901655032,2280
1776901655034,2224
1776901655036,2267
1776901655038,2284
1776901655040,2287
1776901655042,2267
1776901655044,2230
1776901655046,2188
1776901655028,2143
1776901655030,2097
1776901655032,2049
1776901655034,2013
1776901655036,1983
1776901655038,1967
1776901655040,1960
1776901655042,1963
1776901655044,1975
1776901655046,1991
1776901655065,2004
1776901655067,2017
1776901655069,2024
1776901655071,2029
1776901655073,2026
1776901655075,1987
1776901655077,2027
1776901655079,2060
1776901655081,2086
1776901655083,2100
1776901655065,2096
1776901655067,2084
1776901655069,2057
1776901655071,2027
1776901655073,1999
1776901655075,1984
1776901655077,1979
1776901655079,1981
1776901655081,1986
1776901655083,1999
1776901655123,2014
1776901655125,2022
1776901655127,2034
1776901655129,2033
1776901655131,2027
1776901655133,2032
1776901655135,2034
1776901655137,2037
1776901655139,2031
1776901655141,2106
1776901655123,2147
1776901655125,2162
1776901655127,2153
1776901655129,2131
1776901655131,2080
1776901655133,2051
1776901655135,2027
1776901655137,2014
1776901655139,2017
1776901655141,2031
1776901655123,2045
1776901655125,2062
1776901655127,2070
1776901655129,2074
1776901655131,2073
1776901655133,2077
1776901655135,2085
1776901655137,2095
1776901655139,2110
1776901655141,2130
1776901655155,2105
1776901655157,2156
1776901655159,2213
1776901655161,2240
1776901655163,2232
1776901655165,2211
1776901655167,2178
1776901655169,2143
1776901655171,2112
1776901655173,2093
1776901655155,2082
1776901655157,2068
1776901655159,2060
1776901655161,2054
1776901655163,2046
1776901655165,2049
1776901655167,2055
1776901655169,2063
1776901655171,2079
1776901655173,2100
1776901655251,2117
1776901655253,2132
1776901655255,2130
1776901655257,2106
1776901655259,2154
1776901655261,2181
1776901655263,2192
1776901655265,2189
1776901655267,2177
1776901655269,2164
1776901655251,2143
1776901655253,2129
1776901655255,2108
1776901655257,2092
1776901655259,2072
1776901655261,2066
1776901655263,2066
1776901655265,2077
1776901655267,2093
1776901655269,2114
1776901655251,2129
1776901655253,2153
1776901655255,2160
1776901655257,2160
1776901655259,2149
1776901655261,2128
1776901655263,2153
1776901655265,2174
1776901655267,2198
1776901655269,2223
1776901655251,2243
1776901655253,2243
1776901655255,2241
1776901655257,2221
1776901655259,2199
1776901655261,2188
1776901655263,2179
1776901655265,2177
1776901655267,2188
1776901655269,2198
1776901655347,2210
1776901655349,2222
1776901655351,2229
1776901655353,2225
1776901655355,2219
1776901655357,2219
1776901655359,2227
1776901655361,2235
1776901655363,2201
1776901655365,2307
1776901655347,2365
1776901655349,2401
1776901655351,2389
1776901655353,2343
1776901655355,2276
1776901655357,2219
1776901655359,2166
1776901655361,2131
1776901655363,2115
1776901655365,2116
1776901655347,2121
1776901655349,2130
1776901655351,2132
1776901655353,2131
1776901655355,2122
1776901655357,2121
1776901655359,2122
1776901655361,2127
1776901655363,2139
1776901655365,2159
1776901655347,2176
1776901655349,2196
1776901655351,2203
1776901655353,2203
1776901655355,2194
1776901655357,2190
1776901655359,2186
1776901655361,2188
1776901655363,2200
1776901655365,2219
1776901655347,2238
1776901655349,2254
1776901655351,2262
1776901655353,2264
1776901655355,2269
1776901655357,2286
1776901655359,2303
1776901655361,2328
1776901655363,2353
1776901655365,2384
1776901655380,2404
1776901655382,2422
1776901655384,2410
1776901655386,2344
1776901655388,2397
1776901655390,2455
1776901655392,2477
1776901655394,2464
1776901655396,2425
1776901655398,2371
1776901655380,2307
1776901655382,2254
1776901655384,2206
1776901655386,2164
1776901655388,2127
1776901655390,2105
1776901655392,2095
1776901655394,2101
1776901655396,2109
1776901655398,2109
1776901655475,2105
1776901655477,2092
1776901655479,2082
1776901655481,2063
1776901655483,2045
1776901655485,2013
1776901655487,2068
1776901655489,2116
1776901655491,2156
1776901655493,2177
1776901655475,2179
1776901655477,2156
1776901655479,2127
1776901655481,2094
1776901655483,2062
1776901655485,2047
1776901655487,2044
1776901655489,2048
1776901655491,2063
1776901655493,2085
1776901655475,2099
1776901655477,2113
1776901655479,2117
1776901655481,2119
1776901655483,2115
1776901655485,2113
1776901655487,2116
1776901655489,2117
1776901655491,2131
1776901655493,2172
1776901655475,2200
1776901655477,2215
1776901655479,2215
1776901655481,2206
1776901655483,2192
1776901655485,2180
1776901655487,2175
1776901655489,2172
1776901655491,2171
1776901655493,2172
1776901655475,2177
1776901655477,2186
1776901655479,2209
1776901655481,2230
1776901655483,2264
1776901655485,2327
1776901655487,2415
1776901655489,2529
1776901655491,2674
1776901655493,2856
1776901655515,3038
1776901655517,3262
1776901655519,3584
1776901655521,3868
1776901655523,4066
1776901655525,4095
1776901655527,4095
1776901655529,4047
1776901655531,3833
1776901655533,3555
1776901655515,3246
1776901655517,2909
1776901655519,2542
1776901655521,2194
1776901655523,1892
1776901655525,1672
1776901655527,1520
1776901655529,1434
1776901655531,1402
1776901655533,1409
1776901655573,1443
1776901655575,1484
1776901655577,1520
1776901655579,1554
1776901655581,1657
1776901655583,1737
1776901655585,1799
1776901655587,1840
1776901655589,1875
1776901655591,1905
1776901655573,1931
1776901655575,1946
1776901655577,1966
1776901655579,1980
1776901655581,1984
1776901655583,1990
1776901655585,1995
1776901655587,2011
1776901655589,2029
1776901655591,2052
1776901655605,2074
1776901655607,2090
1776901655609,2104
1776901655611,2105
1776901655613,2102
1776901655615,2071
1776901655617,2115
1776901655619,2155
1776901655621,2186
1776901655623,2212
1776901655605,2217
1776901655607,2213
1776901655609,2194
1776901655611,2179
1776901655613,2158
1776901655615,2150
1776901655617,2150
1776901655619,2165
1776901655621,2184
1776901655623,2208
1776901655656,2224
1776901655658,2242
1776901655660,2251
1776901655662,2258
1776901655664,2256
1776901655666,2272
1776901655668,2289
1776901655670,2306
1776901655672,2313
1776901655674,2386
1776901655656,2436
1776901655658,2456
1776901655660,2460
1776901655662,2441
1776901655664,2409
1776901655666,2384
1776901655668,2371
1776901655670,2374
1776901655672,2384
1776901655674,2406
1776901655699,2421
1776901655701,2431
1776901655703,2439
1776901655705,2449
1776901655707,2453
1776901655709,2461
1776901655711,2479
1776901655713,2505
1776901655715,2533
1776901655717,2567
1776901655699,2566
1776901655701,2633
1776901655703,2682
1776901655705,2711
1776901655707,2705
1776901655709,2688
1776901655711,2660
1776901655713,2634
1776901655715,2617
1776901655717,2607
1776901655699,2602
1776901655701,2600
1776901655703,2584
1776901655705,2568
1776901655707,2556
1776901655709,2557
1776901655711,2562
1776901655713,2571
1776901655715,2582
1776901655717,2595
1776901655740,2599
1776901655742,2592
1776901655744,2576
1776901655746,2522
1776901655748,2563
1776901655750,2582
1776901655752,2589
1776901655754,2571
1776901655756,2536
1776901655758,2492
1776901655740,2438
1776901655742,2384
1776901655744,2329
1776901655746,2276
1776901655748,2225
1776901655750,2195
1776901655752,2178
1776901655754,2170
1776901655756,2178
1776901655758,2188
1776901655796,2193
1776901655798,2193
1776901655800,2175
1776901655802,2160
1776901655804,2140
1776901655806,2096
1776901655808,2127
1776901655810,2153
1776901655812,2175
1776901655814,2183
1776901655796,2167
1776901655798,2142
1776901655800,2103
1776901655802,2061
1776901655804,2027
1776901655806,2010
1776901655808,2006
1776901655810,2019
1776901655812,2030
1776901655814,2050
1776901655831,2062
1776901655833,2066
1776901655835,2069
1776901655837,2062
1776901655839,2052
1776901655841,2048
1776901655843,2050
1776901655845,2055
1776901655847,2050
1776901655849,2116
1776901655831,2154
1776901655833,2174
1776901655835,2170
1776901655837,2146
1776901655839,2105
1776901655841,2074
1776901655843,2049
1776901655845,2037
1776901655847,2036
1776901655849,2041
1776901655831,2047
1776901655833,2051
1776901655835,2046
1776901655837,2042
1776901655839,2043
1776901655841,2052
1776901655843,2063
1776901655845,2085
1776901655847,2108
1776901655849,2129
1776901655875,2114
1776901655877,2156
1776901655879,2222
1776901655881,2246
1776901655883,2242
1776901655885,2216
1776901655887,2179
1776901655889,2146
1776901655891,2115
1776901655893,2094
1776901655875,2078
1776901655877,2058
1776901655879,2057
1776901655881,2049
1776901655883,2040
1776901655885,2046
1776901655887,2059
1776901655889,2074
1776901655891,2091
1776901655893,2109
1776901655924,2128
1776901655926,2143
1776901655928,2140
1776901655930,2112
1776901655932,2150
1776901655934,2170
1776901655936,2181
1776901655938,2184
1776901655940,2181
1776901655942,2179
1776901655924,2162
1776901655926,2150
1776901655928,2125
1776901655930,2107
1776901655932,2091
1776901655934,2091
1776901655936,2101
1776901655938,2116
1776901655940,2139
1776901655942,2161
1776901655965,2171
1776901655967,2183
1776901655969,2183
1776901655971,2180
1776901655973,2176
1776901655975,2145
1776901655977,2191
1776901655979,2232
1776901655981,2268
1776901655983,2285
1776901655965,2281
1776901655967,2260
1776901655969,2231
1776901655971,2195
1776901655973,2156
1776901655975,2140
1776901655977,2128
1776901655979,2129
1776901655981,2143
1776901655983,2165
1776901656021,2178
1776901656023,2189
1776901656025,2195
1776901656027,2193
1776901656029,2180
1776901656031,2181
1776901656033,2186
1776901656035,2194
1776901656037,2193
1776901656039,2262
1776901656021,2297
1776901656023,2315
1776901656025,2303
1776901656027,2269
1776901656029,2219
1776901656031,2196
1776901656033,2174
1776901656035,2163
1776901656037,2164
1776901656039,2175
1776901656055,2183
1776901656057,2190
1776901656059,2189
1776901656061,2191
1776901656063,2185
1776901656065,2184
1776901656067,2186
1776901656069,2197
1776901656071,2212
1776901656073,2229
1776901656055,2209
1776901656057,2250
1776901656059,2284
1776901656061,2303
1776901656063,2294
1776901656065,2285
1776901656067,2264
1776901656069,2248
1776901656071,2234
1776901656073,2227
1776901656055,2217
1776901656057,2203
1776901656059,2196
1776901656061,2186
1776901656063,2181
1776901656065,2183
1776901656067,2189
1776901656069,2202
1776901656071,2221
1776901656073,2237
1776901656100,2246
1776901656102,2257
1776901656104,2250
1776901656106,2221
1776901656108,2284
1776901656110,2329
1776901656112,2358
1776901656114,2369
1776901656116,2368
1776901656118,2358
1776901656100,2335
1776901656102,2314
1776901656104,2285
1776901656106,2254
1776901656108,2228
1776901656110,2214
1776901656112,2209
1776901656114,2214
1776901656116,2221
1776901656118,2231
1776901656147,2244
1776901656149,2249
1776901656151,2251
1776901656153,2244
1776901656155,2234
1776901656157,2197
1776901656159,2236
1776901656161,2267
1776901656163,2283
1776901656165,2279
1776901656147,2261
1776901656149,2227
1776901656151,2186
1776901656153,2155
1776901656155,2120
1776901656157,2108
1776901656159,2108
1776901656161,2117
1776901656163,2134
1776901656165,2148
1776901656190,2154
1776901656192,2158
1776901656194,2158
1776901656196,2157
1776901656198,2155
1776901656200,2164
1776901656202,2174
1776901656204,2183
1776901656206,2180
1776901656208,2251
1776901656190,2289
1776901656192,2307
1776901656194,2293
1776901656196,2267
1776901656198,2225
1776901656200,2205
1776901656202,2187
1776901656204,2181
1776901656206,2179
1776901656208,2182
1776901656243,2184
1776901656245,2181
1776901656247,2183
1776901656249,2177
1776901656251,2169
1776901656253,2171
1776901656255,2175
1776901656257,2175
1776901656259,2180
1776901656261,2186
1776901656243,2163
1776901656245,2214
1776901656247,2266
1776901656249,2311
1776901656251,2356
1776901656253,2413
1776901656255,2486
1776901656257,2580
1776901656259,2702
1776901656261,2866
1776901656243,3041
1776901656245,3240
1776901656247,3438
1776901656249,3628
1776901656251,3786
1776901656253,3900
1776901656255,3938
1776901656257,3874
1776901656259,3712
1776901656261,3463
1776901656280,3146
1776901656282,2786
1776901656284,2397
1776901656286,2007
1776901656288,1799
1776901656290,1657
1776901656292,1578
1776901656294,1539
1776901656296,1528
1776901656298,1535
1776901656280,1559
1776901656282,1582
1776901656284,1612
1776901656286,1631
1776901656288,1647
1776901656290,1683
1776901656292,1733
1776901656294,1792
1776901656296,1856
1776901656298,1918
1776901656339,1971
1776901656341,2019
1776901656343,2062
1776901656345,2092
1776901656347,2112
1776901656349,2095
1776901656351,2160
1776901656353,2210
1776901656355,2252
1776901656357,2276
1776901656339,2273
1776901656341,2256
1776901656343,2223
1776901656345,2192
1776901656347,2165
1776901656349,2162
1776901656351,2167
1776901656353,2187
1776901656355,2211
1776901656357,2235
1776901656389,2249
1776901656391,2264
1776901656393,2273
1776901656395,2273
1776901656397,2270
1776901656399,2279
1776901656401,2293
1776901656403,2309
1776901656405,2309
1776901656407,2389
1776901656389,2435
1776901656391,2448
1776901656393,2444
1776901656395,2417
1776901656397,2386
1776901656399,2371
1776901656401,2363
1776901656403,2369
1776901656405,2385
1776901656407,2404
1776901656389,2415
1776901656391,2423
1776901656393,2428
1776901656395,2426
1776901656397,2424
1776901656399,2437
1776901656401,2462
1776901656403,2486
1776901656405,2511
1776901656407,2536
1776901656468,2511
1776901656470,2558
1776901656472,2625
1776901656474,2663
1776901656476,2665
1776901656478,2647
1776901656480,2617
1776901656482,2592
1776901656484,2582
1776901656486,2578
1776901656468,2572
1776901656470,2569
1776901656472,2558
1776901656474,2551
1776901656476,2549
1776901656478,2557
1776901656480,2565
1776901656482,2576
1776901656484,2594
1776901656486,2613
1776901656468,2626
1776901656470,2631
1776901656472,2629
1776901656474,2616
1776901656476,2630
1776901656478,2642
1776901656480,2649
1776901656482,2656
1776901656484,2660
1776901656486,2658
1776901656468,2645
1776901656470,2630
1776901656472,2609
1776901656474,2580
1776901656476,2552
1776901656478,2534
1776901656480,2520
1776901656482,2515
1776901656484,2516
1776901656486,2514
1776901656505,2494
1776901656507,2473
1776901656509,2444
1776901656511,2412
1776901656513,2375
1776901656515,2317
1776901656517,2319
1776901656519,2388
1776901656521,2425
1776901656523,2428
1776901656505,2392
1776901656507,2331
1776901656509,2255
1776901656511,2173
1776901656513,2103
1776901656515,2058
1776901656517,2030
1776901656519,2019
1776901656521,2024
1776901656523,2034
1776901656564,2040
1776901656566,2034
1776901656568,2031
1776901656570,2017
1776901656572,1997
1776901656574,1990
1776901656576,1991
1776901656578,1992
1776901656580,1976
1776901656582,2046
1776901656564,2083
1776901656566,2093
1776901656568,2084
1776901656570,2051
1776901656572,2000
1776901656574,1978
1776901656576,1961
1776901656578,1952
1776901656580,1960
1776901656582,1969
1776901656564,1972
1776901656566,1976
1776901656568,1977
1776901656570,1970
1776901656572,1964
1776901656574,1972
1776901656576,1980
1776901656578,1997
1776901656580,2018
1776901656582,2042
1776901656596,2020
1776901656598,2054
1776901656600,2106
1776901656602,2124
1776901656604,2114
1776901656606,2091
1776901656608,2055
1776901656610,2021
1776901656612,1998
1776901656614,1988
1776901656596,1984
1776901656598,1969
1776901656600,1960
1776901656602,1953
1776901656604,1952
1776901656606,1961
1776901656608,1973
1776901656610,1988
1776901656612,2009
1776901656614,2031
1776901656640,2045
1776901656642,2052
1776901656644,2046
1776901656646,2008
1776901656648,2057
1776901656650,2089
1776901656652,2104
1776901656654,2102
1776901656656,2093
1776901656658,2083
1776901656640,2071
1776901656642,2058
1776901656644,2039
1776901656646,2020
1776901656648,2009
1776901656650,2015
1776901656652,2023
1776901656654,2041
1776901656656,2061
1776901656658,2082
1776901656692,2091
1776901656694,2099
1776901656696,2098
1776901656698,2094
1776901656700,2091
1776901656702,2070
1776901656704,2127
1776901656706,2181
1776901656708,2220
1776901656710,2240
1776901656692,2232
1776901656694,2202
1776901656696,2172
1776901656698,2137
1776901656700,2105
1776901656702,2088
1776901656704,2087
1776901656706,2095
1776901656708,2112
1776901656710,2140
1776901656730,2160
1776901656732,2172
1776901656734,2175
1776901656736,2168
1776901656738,2157
1776901656740,2164
1776901656742,2167
1776901656744,2185
1776901656746,2180
1776901656748,2252
1776901656730,2282
1776901656732,2298
1776901656734,2282
1776901656736,2251
1776901656738,2205
1776901656740,2187
1776901656742,2171
1776901656744,2164
1776901656746,2172
1776901656748,2192
1776901656789,2197
1776901656791,2199
1776901656793,2189
1776901656795,2181
1776901656797,2172
1776901656799,2172
1776901656801,2185
1776901656803,2206
1776901656805,2230
1776901656807,2251
1776901656789,2234
1776901656791,2269
1776901656793,2308
1776901656795,2324
1776901656797,2322
1776901656799,2314
1776901656801,2298
1776901656803,2283
1776901656805,2274
1776901656807,2269
1776901656789,2259
1776901656791,2243
1776901656793,2227
1776901656795,2209
1776901656797,2197
1776901656799,2198
1776901656801,2208
1776901656803,2226
1776901656805,2251
1776901656807,2278
1776901656820,2297
1776901656822,2315
1776901656824,2319
1776901656826,2277
1776901656828,2354
1776901656830,2404
1776901656832,2432
1776901656834,2437
1776901656836,2427
1776901656838,2399
1776901656820,2355
1776901656822,2315
1776901656824,2271
1776901656826,2231
1776901656828,2204
1776901656830,2191
1776901656832,2189
1776901656834,2195
1776901656836,2205
1776901656838,2212
1776901656865,2220
1776901656867,2212
1776901656869,2209
1776901656871,2199
1776901656873,2184
1776901656875,2153
1776901656877,2182
1776901656879,2223
1776901656881,2248
1776901656883,2254
1776901656865,2242
1776901656867,2221
1776901656869,2187
1776901656871,2151
1776901656873,2124
1776901656875,2116
1776901656877,2119
1776901656879,2128
1776901656881,2145
1776901656883,2161
1776901656917,2169
1776901656919,2180
1776901656921,2178
1776901656923,2175
1776901656925,2168
1776901656927,2177
1776901656929,2187
1776901656931,2200
1776901656933,2193
1776901656935,2264
1776901656917,2293
1776901656919,2309
1776901656921,2304
1776901656923,2280
1776901656925,2240
1776901656927,2226
1776901656929,2206
1776901656931,2193
1776901656933,2194
1776901656935,2199
1776901656955,2196
1776901656957,2184
1776901656959,2178
1776901656961,2160
1776901656963,2144
1776901656965,2147
1776901656967,2161
1776901656969,2189
1776901656971,2228
1776901656973,2273
1776901656955,2298
1776901656957,2406
1776901656959,2536
1776901656961,2664
1776901656963,2795
1776901656965,2939
1776901656967,3103
1776901656969,3285
1776901656971,3475
1776901656973,3656
1776901656955,3803
1776901656957,3898
1776901656959,3906
1776901656961,3808
1776901656963,3620
1776901656965,3369
1776901656967,3070
1776901656969,2733
1776901656971,2384
1776901656973,2069
1776901657013,1818
1776901657015,1649
1776901657017,1554
1776901657019,1470
1776901657021,1542
1776901657023,1625
1776901657025,1707
1776901657027,1769
1776901657029,1815
1776901657031,1837
1776901657013,1844
1776901657015,1850
1776901657017,1875
1776901657019,1896
1776901657021,1922
1776901657023,1963
1776901657025,2011
1776901657027,2066
1776901657029,2125
1776901657031,2173
1776901657046,2211
1776901657048,2240
1776901657050,2263
1776901657052,2269
1776901657054,2268
1776901657056,2252
1776901657058,2291
1776901657060,2336
1776901657062,2375
1776901657064,2393
1776901657046,2382
1776901657048,2363
1776901657050,2330
1776901657052,2295
1776901657054,2270
1776901657056,2268
1776901657058,2269
1776901657060,2278
1776901657062,2296
1776901657064,2316
1776901657090,2325
1776901657092,2342
1776901657094,2342
1776901657096,2342
1776901657098,2348
1776901657100,2359
1776901657102,2372
1776901657104,2384
1776901657106,2362
1776901657108,2443
1776901657090,2486
1776901657092,2497
1776901657094,2490
1776901657096,2460
1776901657098,2418
1776901657100,2390
1776901657102,2363
1776901657104,2350
1776901657106,2348
1776901657108,2350
1776901657090,2347
1776901657092,2353
1776901657094,2352
1776901657096,2353
1776901657098,2361
1776901657100,2378
1776901657102,2395
1776901657104,2418
1776901657106,2442
1776901657108,2465
1776901657140,2455
1776901657142,2500
1776901657144,2574
1776901657146,2610
1776901657148,2618
1776901657150,2605
1776901657152,2585
1776901657154,2558
1776901657156,2536
1776901657158,2517
1776901657140,2495
1776901657142,2484
1776901657144,2470
1776901657146,2463
1776901657148,2462
1776901657150,2478
1776901657152,2496
1776901657154,2513
1776901657156,2537
1776901657158,2552
1776901657180,2564
1776901657182,2559
1776901657184,2551
1776901657186,2511
1776901657188,2555
1776901657190,2582
1776901657192,2601
1776901657194,2605
1776901657196,2588
1776901657198,2557
1776901657180,2512
1776901657182,2461
1776901657184,2415
1776901657186,2375
1776901657188,2341
1776901657190,2327
1776901657192,2320
1776901657194,2318
1776901657196,2316
1776901657198,2316
1776901657236,2303
1776901657238,2290
1776901657240,2265
1776901657242,2242
1776901657244,2224
1776901657246,2182
1776901657248,2203
1776901657250,2232
1776901657252,2255
1776901657254,2256
1776901657236,2235
1776901657238,2200
1776901657240,2158
1776901657242,2114
1776901657244,2076
1776901657246,2062
1776901657248,2064
1776901657250,2070
1776901657252,2087
1776901657254,2098
1776901657270,2095
1776901657272,2092
1776901657274,2089
1776901657276,2079
1776901657278,2067
1776901657280,2066
1776901657282,2077
1776901657284,2091
1776901657286,2086
1776901657288,2160
1776901657270,2193
1776901657272,2206
1776901657274,2197
1776901657276,2173
1776901657278,2138
1776901657280,2124
1776901657282,2111
1776901657284,2108
1776901657286,2113
1776901657288,2121
1776901657270,2114
1776901657272,2121
1776901657274,2117
1776901657276,2108
1776901657278,2105
1776901657280,2113
1776901657282,2129
1776901657284,2148
1776901657286,2164
1776901657288,2180
1776901657316,2156
1776901657318,2182
1776901657320,2234
1776901657322,2259
1776901657324,2256
1776901657326,2242
1776901657328,2209
1776901657330,2178
1776901657332,2151
1776901657334,2128
1776901657316,2106
1776901657318,2084
1776901657320,2075
1776901657322,2066
1776901657324,2065
1776901657326,2076
1776901657328,2094
1776901657330,2121
1776901657332,2144
1776901657334,2163
1776901657363,2172
1776901657365,2177
1776901657367,2168
1776901657369,2133
1776901657371,2179
1776901657373,2218
1776901657375,2238
1776901657377,2245
1776901657379,2239
1776901657381,2226
1776901657363,2201
1776901657365,2189
1776901657367,2168
1776901657369,2150
1776901657371,2144
1776901657373,2155
1776901657375,2170
1776901657377,2187
1776901657379,2206
1776901657381,2219
1776901657405,2223
1776901657407,2231
1776901657409,2229
1776901657411,2222
1776901657413,2215
1776901657415,2197
1776901657417,2243
1776901657419,2292
1776901657421,2332
1776901657423,2343
1776901657405,2327
1776901657407,2291
1776901657409,2256
1776901657411,2219
1776901657413,2190
1776901657415,2181
1776901657417,2183
1776901657419,2196
1776901657421,2213
1776901657423,2226
1776901657460,2231
1776901657462,2229
1776901657464,2222
1776901657466,2216
1776901657468,2214
1776901657470,2222
1776901657472,2242
1776901657474,2257
1776901657476,2253
1776901657478,2325
1776901657460,2351
1776901657462,2366
1776901657464,2348
1776901657466,2321
1776901657468,2282
1776901657470,2264
1776901657472,2249
1776901657474,2247
1776901657476,2250
1776901657478,2251
1776901657495,2248
1776901657497,2255
1776901657499,2247
1776901657501,2240
1776901657503,2236
1776901657505,2242
1776901657507,2250
1776901657509,2265
1776901657511,2282
1776901657513,2291
1776901657495,2268
1776901657497,2296
1776901657499,2325
1776901657501,2339
1776901657503,2333
1776901657505,2322
1776901657507,2304
1776901657509,2295
1776901657511,2286
1776901657513,2280
1776901657495,2266
1776901657497,2255
1776901657499,2247
1776901657501,2241
1776901657503,2241
1776901657505,2256
1776901657507,2277
1776901657509,2295
1776901657511,2317
1776901657513,2329
1776901657540,2326
1776901657542,2322
1776901657544,2304
1776901657546,2250
1776901657548,2323
1776901657550,2377
1776901657552,2415
1776901657554,2427
1776901657556,2422
1776901657558,2402
1776901657540,2369
1776901657542,2349
1776901657544,2328
1776901657546,2314
1776901657548,2310
1776901657550,2315
1776901657552,2323
1776901657554,2331
1776901657556,2340
1776901657558,2343
1776901657587,2344
1776901657589,2336
1776901657591,2332
1776901657593,2321
1776901657595,2310
1776901657597,2287
1776901657599,2325
1776901657601,2369
1776901657603,2403
1776901657605,2412
1776901657587,2398
1776901657589,2364
1776901657591,2324
1776901657593,2277
1776901657595,2233
1776901657597,2207
1776901657599,2187
1776901657601,2187
1776901657603,2194
1776901657605,2201
1776901657630,2202
1776901657632,2212
1776901657634,2214
1776901657636,2214
1776901657638,2217
1776901657640,2231
1776901657642,2242
1776901657644,2253
1776901657646,2238
1776901657648,2301
1776901657630,2324
1776901657632,2328
1776901657634,2309
1776901657636,2281
1776901657638,2249
1776901657640,2239
1776901657642,2228
1776901657644,2228
1776901657646,2237
1776901657648,2244
1776901657683,2245
1776901657685,2237
1776901657687,2236
1776901657689,2235
1776901657691,2236
1776901657693,2245
1776901657695,2262
1776901657697,2281
1776901657699,2305
1776901657701,2319
1776901657720,2291
1776901657722,2319
1776901657724,2337
1776901657726,2340
1776901657728,2324
1776901657730,2313
1776901657732,2305
1776901657734,2311
1776901657736,2339
1776901657738,2389
1776901657720,2454
1776901657722,2544
1776901657724,2661
1776901657726,2808
1776901657728,2990
1776901657730,3199
1776901657732,3418
1776901657734,3641
1776901657736,3847
1776901657738,4004
1776901657720,4084
1776901657722,4088
1776901657724,3986
1776901657726,3781
1776901657728,3530
1776901657730,3253
1776901657732,2947
1776901657734,2643
1776901657736,2366
1776901657738,2137
1776901657722,1956
1776901657724,1824
1776901657726,1748
1776901657728,1707
1776901657730,1697
1776901657732,1726
1776901657734,1777
1776901657736,1847
1776901657738,1928
1776901657740,1994
1776901657781,2046
1776901657783,2091
1776901657785,2128
1776901657787,2162
1776901657789,2202
1776901657791,2220
1776901657793,2278
1776901657795,2400
1776901657797,2476
1776901657799,2503
1776901657781,2478
1776901657783,2431
1776901657785,2361
1776901657787,2298
1776901657789,2250
1776901657791,2231
1776901657793,2219
1776901657795,2225
1776901657797,2235
1776901657799,2245
1776901657812,2245
1776901657814,2249
1776901657816,2244
1776901657818,2244
1776901657820,2286
1776901657822,2274
1776901657824,2294
1776901657826,2316
1776901657828,2306
1776901657830,2381
1776901657812,2417
1776901657814,2425
1776901657816,2417
1776901657818,2394
1776901657820,2369
1776901657822,2357
1776901657824,2350
1776901657826,2352
1776901657828,2364
1776901657830,2369
1776901657812,2374
1776901657814,2376
1776901657816,2380
1776901657818,2382
1776901657820,2391
1776901657822,2408
1776901657824,2429
1776901657826,2455
1776901657828,2483
1776901657830,2503
1776901657855,2486
1776901657857,2523
1776901657859,2596
1776901657861,2632
1776901657863,2647
1776901657865,2646
1776901657867,2627
1776901657869,2608
1776901657871,2590
1776901657873,2573
1776901657855,2549
1776901657857,2543
1776901657859,2535
1776901657861,2535
1776901657863,2543
1776901657865,2563
1776901657867,2592
1776901657869,2625
1776901657871,2661
1776901657873,2688
1776901657907,2702
1776901657909,2707
1776901657911,2713
1776901657913,2684
1776901657915,2739
1776901657917,2771
1776901657919,2788
1776901657921,2795
1776901657923,2785
1776901657925,2762
1776901657907,2727
1776901657909,2689
1776901657911,2658
1776901657913,2630
1776901657915,2614
1776901657917,2607
1776901657919,2608
1776901657921,2616
1776901657923,2619
1776901657925,2617
1776901657946,2598
1776901657948,2581
1776901657950,2556
1776901657952,2538
1776901657954,2518
1776901657956,2477
1776901657958,2503
1776901657960,2530
1776901657962,2542
1776901657964,2532
1776901657946,2499
1776901657948,2455
1776901657950,2404
1776901657952,2355
1776901657954,2320
1776901657956,2300
1776901657958,2287
1776901657960,2282
1776901657962,2285
1776901657964,2281
1776901658003,2278
1776901658005,2265
1776901658007,2256
1776901658009,2241
1776901658011,2231
1776901658013,2241
1776901658015,2248
1776901658017,2261
1776901658019,2244
1776901658021,2309
1776901658003,2336
1776901658005,2338
1776901658007,2322
1776901658009,2291
1776901658011,2255
1776901658013,2235
1776901658015,2221
1776901658017,2221
1776901658019,2230
1776901658021,2242
1776901658003,2241
1776901658005,2246
1776901658007,2238
1776901658009,2235
1776901658011,2235
1776901658013,2246
1776901658015,2263
1776901658017,2280
1776901658019,2301
1776901658021,2315
1776901658035,2282
1776901658037,2305
1776901658039,2358
1776901658041,2383
1776901658043,2386
1776901658045,2376
1776901658047,2349
1776901658049,2319
1776901658051,2291
1776901658053,2264
1776901658035,2245
1776901658037,2222
1776901658039,2210
1776901658041,2204
1776901658043,2200
1776901658045,2213
1776901658047,2230
1776901658049,2251
1776901658051,2270
1776901658053,2285
1776901658080,2293
1776901658082,2296
1776901658084,2294
1776901658086,2263
1776901658088,2321
1776901658090,2359
1776901658092,2386
1776901658094,2398
1776901658096,2392
1776901658098,2373
1776901658080,2346
1776901658082,2326
1776901658084,2306
1776901658086,2289
1776901658088,2282
1776901658090,2286
1776901658092,2299
1776901658094,2321
1776901658096,2338
1776901658098,2352
1776901658132,2354
1776901658134,2357
1776901658136,2352
1776901658138,2347
1776901658140,2344
1776901658142,2327
1776901658144,2370
1776901658146,2422
1776901658148,2455
1776901658150,2468
1776901658132,2457
1776901658134,2425
1776901658136,2389
1776901658138,2357
1776901658140,2335
1776901658142,2328
1776901658144,2329
1776901658146,2338
1776901658148,2350
1776901658150,2353
1776901658228,2348
1776901658230,2338
1776901658232,2331
1776901658234,2330
1776901658236,2330
1776901658238,2340
1776901658240,2348
1776901658242,2367
1776901658244,2352
1776901658246,2408
1776901658228,2433
1776901658230,2439
1776901658232,2424
1776901658234,2397
1776901658236,2368
1776901658238,2353
1776901658240,2340
1776901658242,2340
1776901658244,2341
1776901658246,2343
1776901658228,2335
1776901658230,2336
1776901658232,2331
1776901658234,2328
1776901658236,2332
1776901658238,2340
1776901658240,2349
1776901658242,2361
1776901658244,2365
1776901658246,2366
1776901658228,2351
1776901658230,2366
1776901658232,2376
1776901658234,2375
1776901658236,2371
1776901658238,2371
1776901658240,2365
1776901658242,2367
1776901658244,2375
1776901658246,2375
1776901658228,2369
1776901658230,2363
1776901658232,2355
1776901658234,2350
1776901658236,2355
1776901658238,2367
1776901658240,2377
1776901658242,2392
1776901658244,2412
1776901658246,2427
1776901658323,2426
1776901658325,2426
1776901658327,2414
1776901658329,2353
1776901658331,2414
1776901658333,2510
1776901658335,2561
1776901658337,2574
1776901658339,2543
1776901658341,2484
1776901658323,2408
1776901658325,2337
1776901658327,2269
1776901658329,2215
1776901658331,2184
1776901658333,2173
1776901658335,2175
1776901658337,2188
1776901658339,2205
1776901658341,2217
1776901658323,2229
1776901658325,2232
1776901658327,2245
1776901658329,2257
1776901658331,2272
1776901658333,2297
1776901658335,2333
1776901658337,2365
1776901658339,2386
1776901658341,2392
1776901658323,2379
1776901658325,2369
1776901658327,2355
1776901658329,2348
1776901658331,2350
1776901658333,2354
1776901658335,2367
1776901658337,2386
1776901658339,2400
1776901658341,2410
1776901658355,2413
1776901658357,2416
1776901658359,2414
1776901658361,2412
1776901658363,2412
1776901658365,2418
1776901658367,2418
1776901658369,2415
1776901658371,2364
1776901658373,2432
1776901658355,2464
1776901658357,2473
1776901658359,2445
1776901658361,2400
1776901658363,2353
1776901658365,2315
1776901658367,2291
1776901658369,2280
1776901658371,2275
1776901658373,2266
1776901658395,2258
1776901658397,2244
1776901658399,2241
1776901658401,2230
1776901658403,2226
1776901658405,2234
1776901658407,2253
1776901658409,2275
1776901658411,2300
1776901658413,2318
1776901658395,2294
1776901658397,2333
1776901658399,2373
1776901658401,2394
1776901658403,2394
1776901658405,2382
1776901658407,2364
1776901658409,2345
1776901658411,2328
1776901658413,2310
1776901658395,2290
1776901658397,2270
1776901658399,2252
1776901658401,2239
1776901658403,2230
1776901658405,2234
1776901658407,2242
1776901658409,2256
1776901658411,2276
1776901658413,2299
1776901658452,2322
1776901658454,2364
1776901658456,2415
1776901658458,2450
1776901658460,2613
1776901658462,2786
1776901658464,2969
1776901658466,3168
1776901658468,3367
1776901658470,3553
1776901658452,3723
1776901658454,3865
1776901658456,3978
1776901658458,4032
1776901658460,4016
1776901658462,3915
1776901658464,3726
1776901658466,3481
1776901658468,3193
1776901658470,2869
1776901658485,2540
1776901658487,2246
1776901658489,2014
1776901658491,1851
1776901658493,1747
1776901658495,1676
1776901658497,1705
1776901658499,1764
1776901658501,1821
1776901658503,1869
1776901658485,1901
1776901658487,1936
1776901658489,1956
1776901658491,1978
1776901658493,2006
1776901658495,2043
1776901658497,2089
1776901658499,2148
1776901658501,2205
1776901658503,2248
1776901658530,2273
1776901658532,2292
1776901658534,2298
1776901658536,2300
1776901658538,2307
1776901658540,2319
1776901658542,2330
1776901658544,2348
1776901658546,2342
1776901658548,2404
1776901658530,2436
1776901658532,2441
1776901658534,2432
1776901658536,2409
1776901658538,2383
1776901658540,2366
1776901658542,2357
1776901658544,2358
1776901658546,2357
1776901658548,2357
1776901658530,2351
1776901658532,2348
1776901658534,2344
1776901658536,2344
1776901658538,2351
1776901658540,2366
1776901658542,2388
1776901658544,2415
1776901658546,2435
1776901658548,2447
1776901658587,2415
1776901658589,2440
1776901658591,2495
1776901658593,2530
1776901658595,2538
1776901658597,2523
1776901658599,2494
1776901658601,2464
1776901658603,2435
1776901658605,2409
1776901658587,2386
1776901658589,2374
1776901658591,2364
1776901658593,2364
1776901658595,2374
1776901658597,2400
1776901658599,2427
1776901658601,2456
1776901658603,2484
1776901658605,2505
1776901658620,2517
1776901658622,2524
1776901658624,2533
1776901658626,2514
1776901658628,2580
1776901658630,2630
1776901658632,2667
1776901658634,2682
1776901658636,2679
1776901658638,2670
1776901658620,2656
1776901658622,2635
1776901658624,2621
1776901658626,2612
1776901658628,2617
1776901658630,2635
1776901658632,2656
1776901658634,2678
1776901658636,2694
1776901658638,2702
1776901658676,2698
1776901658678,2699
1776901658680,2692
1776901658682,2685
1776901658684,2685
1776901658686,2663
1776901658688,2701
1776901658690,2742
1776901658692,2767
1776901658694,2764
1776901658676,2731
1776901658678,2690
1776901658680,2637
1776901658682,2586
1776901658684,2543
1776901658686,2518
1776901658688,2500
1776901658690,2487
1776901658692,2475
1776901658694,2455
1776901658711,2431
1776901658713,2400
1776901658715,2374
1776901658717,2353
1776901658719,2338
1776901658721,2327
1776901658723,2321
1776901658725,2314
1776901658727,2277
1776901658729,2311
1776901658711,2318
1776901658713,2308
1776901658715,2282
1776901658717,2249
1776901658719,2205
1776901658721,2186
1776901658723,2167
1776901658725,2153
1776901658727,2143
1776901658729,2133
1776901658711,2113
1776901658713,2095
1776901658715,2076
1776901658717,2073
1776901658719,2076
1776901658721,2093
1776901658723,2111
1776901658725,2135
1776901658727,2150
1776901658729,2151
1776901658755,2111
1776901658757,2121
1776901658759,2164
1776901658761,2189
1776901658763,2186
1776901658765,2179
1776901658767,2157
1776901658769,2134
1776901658771,2106
1776901658773,2078
1776901658755,2055
1776901658757,2031
1776901658759,2017
1776901658761,2014
1776901658763,2018
1776901658765,2029
1776901658767,2048
1776901658769,2069
1776901658771,2086
1776901658773,2098
1776901658805,2099
1776901658807,2098
1776901658809,2093
1776901658811,2067
1776901658813,2123
1776901658815,2163
1776901658817,2188
1776901658819,2198
1776901658821,2190
1776901658823,2171
1776901658805,2142
1776901658807,2122
1776901658809,2099
1776901658811,2088
1776901658813,2084
1776901658815,2093
1776901658817,2109
1776901658819,2127
1776901658821,2136
1776901658823,2138
1776901658845,2135
1776901658847,2134
1776901658849,2124
1776901658851,2127
1776901658853,2132
1776901658855,2116
1776901658857,2162
1776901658859,2213
1776901658861,2242
1776901658863,2248
1776901658845,2226
1776901658847,2189
1776901658849,2158
1776901658851,2130
1776901658853,2113
1776901658855,2114
1776901658857,2121
1776901658859,2137
1776901658861,2150
1776901658863,2159
1776901658900,2156
1776901658902,2152
1776901658904,2152
1776901658906,2156
1776901658908,2163
1776901658910,2179
1776901658912,2191
1776901658914,2201
1776901658916,2184
1776901658918,2241
1776901658900,2262
1776901658902,2268
1776901658904,2247
1776901658906,2224
1776901658908,2198
1776901658910,2191
1776901658912,2185
1776901658914,2182
1776901658916,2184
1776901658918,2180
1776901658936,2169
1776901658938,2166
1776901658940,2156
1776901658942,2154
1776901658944,2159
1776901658946,2176
1776901658948,2194
1776901658950,2212
1776901658952,2224
1776901658954,2233
1776901658936,2203
1776901658938,2231
1776901658940,2251
1776901658942,2266
1776901658944,2265
1776901658946,2259
1776901658948,2242
1776901658950,2225
1776901658952,2201
1776901658954,2178
1776901658936,2154
1776901658938,2133
1776901658940,2116
1776901658942,2109
1776901658944,2112
1776901658946,2123
1776901658948,2137
1776901658950,2154
1776901658952,2166
1776901658954,2173
1776901658980,2174
1776901658982,2173
1776901658984,2166
1776901658986,2119
1776901658988,2197
1776901658990,2250
1776901658992,2283
1776901658994,2284
1776901658996,2259
1776901658998,2213
1776901658980,2153
1776901658982,2105
1776901658984,2060
1776901658986,2035
1776901658988,2024
1776901658990,2034
1776901658992,2056
1776901658994,2079
1776901658996,2093
1776901658998,2100
1776901659028,2101
1776901659030,2092
1776901659032,2096
1776901659034,2098
1776901659036,2104
1776901659038,2083
1776901659040,2131
1776901659042,2185
1776901659044,2218
1776901659046,2217
1776901659028,2198
1776901659030,2168
1776901659032,2132
1776901659034,2098
1776901659036,2068
1776901659038,2059
1776901659040,2062
1776901659042,2074
1776901659044,2088
1776901659046,2103
1776901659070,2111
1776901659072,2126
1776901659074,2138
1776901659076,2156
1776901659078,2180
1776901659080,2210
1776901659082,2239
1776901659084,2260
1776901659086,2243
1776901659088,2298
1776901659070,2311
1776901659072,2313
1776901659074,2291
1776901659076,2261
1776901659078,2223
1776901659080,2204
1776901659082,2189
1776901659084,2183
1776901659086,2179
1776901659088,2175
1776901659124,2167
1776901659126,2153
1776901659128,2150
1776901659130,2147
1776901659132,2153
1776901659134,2162
1776901659136,2161
1776901659138,2160
1776901659140,2153
1776901659142,2143
1776901659124,2100
1776901659126,2126
1776901659128,2164
1776901659130,2188
1776901659132,2205
1776901659134,2205
1776901659136,2201
1776901659138,2190
1776901659140,2171
1776901659142,2147
1776901659124,2122
1776901659126,2110
1776901659128,2099
1776901659130,2095
1776901659132,2096
1776901659134,2109
1776901659136,2122
1776901659138,2138
1776901659140,2142
1776901659142,2144
1776901659160,2137
1776901659162,2132
1776901659164,2124
1776901659166,2089
1776901659168,2175
1776901659170,2237
1776901659172,2273
1776901659174,2280
1776901659176,2260
1776901659178,2221
1776901659160,2174
1776901659162,2129
1776901659164,2101
1776901659166,2078
1776901659168,2055
1776901659170,2039
1776901659172,2038
1776901659174,2049
1776901659176,2075
1776901659178,2110
1776901659221,2156
1776901659223,2218
1776901659225,2302
1776901659227,2401
1776901659229,2530
1776901659231,2661
1776901659233,2891
1776901659235,3145
1776901659237,3391
1776901659239,3625
1776901659221,3821
1776901659223,3974
1776901659225,4035
1776901659227,4002
1776901659229,3872
1776901659231,3652
1776901659233,3374
1776901659235,3044
1776901659237,2672
1776901659239,2290
1776901659253,1944
1776901659255,1689
1776901659257,1513
1776901659259,1424
1776901659261,1394
1776901659263,1418
1776901659265,1468
1776901659267,1531
1776901659269,1567
1776901659271,1686
1776901659253,1762
1776901659255,1808
1776901659257,1842
1776901659259,1868
1776901659261,1887
1776901659263,1910
1776901659265,1943
1776901659267,1983
1776901659269,2022
1776901659271,2059
1776901659253,2086
1776901659255,2101
1776901659257,2113
1776901659259,2125
1776901659261,2139
1776901659263,2157
1776901659265,2172
1776901659267,2188
1776901659269,2203
1776901659271,2214
1776901659303,2180
1776901659305,2211
1776901659307,2279
1776901659309,2321
1776901659311,2334
1776901659313,2327
1776901659315,2297
1776901659317,2264
1776901659319,2226
1776901659321,2185
1776901659303,2148
1776901659305,2127
1776901659307,2118
1776901659309,2121
1776901659311,2134
1776901659313,2161
1776901659315,2189
1776901659317,2214
1776901659319,2233
1776901659321,2237
1776901659347,2237
1776901659349,2233
1776901659351,2230
1776901659353,2199
1776901659355,2262
1776901659357,2313
1776901659359,2348
1776901659361,2363
1776901659363,2357
1776901659365,2336
1776901659347,2312
1776901659349,2286
1776901659351,2270
1776901659353,2267
1776901659355,2272
1776901659357,2286
1776901659359,2307
1776901659361,2334
1776901659363,2361
1776901659365,2378
1776901659443,2388
1776901659445,2398
1776901659447,2407
1776901659449,2423
1776901659451,2442
1776901659453,2438
1776901659455,2502
1776901659457,2563
1776901659459,2603
1776901659461,2614
1776901659443,2599
1776901659445,2572
1776901659447,2547
1776901659449,2528
1776901659451,2517
1776901659453,2521
1776901659455,2535
1776901659457,2552
1776901659459,2564
1776901659461,2569
1776901659443,2568
1776901659445,2555
1776901659447,2556
1776901659449,2554
1776901659451,2552
1776901659453,2558
1776901659455,2563
1776901659457,2566
1776901659459,2549
1776901659461,2559
1776901659443,2548
1776901659445,2535
1776901659447,2510
1776901659449,2483
1776901659451,2462
1776901659453,2444
1776901659455,2427
1776901659457,2414
1776901659459,2397
1776901659461,2376
1776901659443,2351
1776901659445,2330
1776901659447,2307
1776901659449,2289
1776901659451,2278
1776901659453,2274
1776901659455,2271
1776901659457,2268
1776901659459,2264
1776901659461,2248
1776901659475,2201
1776901659477,2172
1776901659479,2249
1776901659481,2294
1776901659483,2302
1776901659485,2280
1776901659487,2229
1776901659489,2165
1776901659491,2092
1776901659493,2020
1776901659475,1962
1776901659477,1916
1776901659479,1893
1776901659481,1890
1776901659483,1896
1776901659485,1908
1776901659487,1918
1776901659489,1934
1776901659491,1942
1776901659493,1941
1776901659520,1935
1776901659522,1928
1776901659524,1922
1776901659526,1895
1776901659528,1961
1776901659530,2007
1776901659532,2036
1776901659534,2045
1776901659536,2035
1776901659538,2007
1776901659520,1977
1776901659522,1957
1776901659524,1941
1776901659526,1931
1776901659528,1937
1776901659530,1954
1776901659532,1972
1776901659534,1993
1776901659536,2010
1776901659538,2021
1776901659572,2018
1776901659574,2020
1776901659576,2018
1776901659578,2025
1776901659580,2031
1776901659582,2022
1776901659584,2071
1776901659586,2124
1776901659588,2155
1776901659590,2156
1776901659572,2137
1776901659574,2097
1776901659576,2070
1776901659578,2049
1776901659580,2038
1776901659582,2043
1776901659584,2050
1776901659586,2065
1776901659588,2078
1776901659590,2088
1776901659611,2085
1776901659613,2083
1776901659615,2085
1776901659617,2091
1776901659619,2104
1776901659621,2121
1776901659623,2134
1776901659625,2144
1776901659627,2120
1776901659629,2177
1776901659611,2201
1776901659613,2210
1776901659615,2191
1776901659617,2164
1776901659619,2125
1776901659621,2117
1776901659623,2113
1776901659625,2112
1776901659627,2109
1776901659629,2103
1776901659667,2089
1776901659669,2084
1776901659671,2078
1776901659673,2083
1776901659675,2092
1776901659677,2110
1776901659679,2132
1776901659681,2152
1776901659683,2168
1776901659685,2177
1776901659667,2143
1776901659669,2157
1776901659671,2187
1776901659673,2204
1776901659675,2202
1776901659677,2196
1776901659679,2186
1776901659681,2174
1776901659683,2153
1776901659685,2134
1776901659667,2114
1776901659669,2096
1776901659671,2091
1776901659673,2093
1776901659675,2100
1776901659677,2115
1776901659679,2135
1776901659681,2150
1776901659683,2159
1776901659685,2160
1776901659700,2150
1776901659702,2148
1776901659704,2145
1776901659706,2105
1776901659708,2181
1776901659710,2232
1776901659712,2265
1776901659714,2266
1776901659716,2239
1776901659718,2199
1776901659700,2152
1776901659702,2108
1776901659704,2067
1776901659706,2044
1776901659708,2033
1776901659710,2040
1776901659712,2058
1776901659714,2081
1776901659716,2092
1776901659718,2097
1776901659745,2097
1776901659747,2085
1776901659749,2088
1776901659751,2094
1776901659753,2107
1776901659755,2098
1776901659757,2143
1776901659759,2193
1776901659761,2224
1776901659763,2232
1776901659745,2216
1776901659747,2181
1776901659749,2147
1776901659751,2114
1776901659753,2089
1776901659755,2084
1776901659757,2091
1776901659759,2100
1776901659761,2115
1776901659763,2130
1776901659795,2138
1776901659797,2159
1776901659799,2172
1776901659801,2191
1776901659803,2211
1776901659805,2239
1776901659807,2260
1776901659809,2273
1776901659811,2252
1776901659813,2307
1776901659795,2332
1776901659797,2337
1776901659799,2332
1776901659801,2317
1776901659803,2288
1776901659805,2276
1776901659807,2261
1776901659809,2246
1776901659811,2231
1776901659813,2218
1776901659835,2202
1776901659837,2182
1776901659839,2180
1776901659841,2180
1776901659843,2178
1776901659845,2179
1776901659847,2183
1776901659849,2190
1776901659851,2192
1776901659853,2189
1776901659835,2160
1776901659837,2176
1776901659839,2216
1776901659841,2238
1776901659843,2247
1776901659845,2246
1776901659847,2228
1776901659849,2203
1776901659851,2177
1776901659853,2142
1776901659835,2121
1776901659837,2106
1776901659839,2093
1776901659841,2093
1776901659843,2092
1776901659845,2115
1776901659847,2136
1776901659849,2154
1776901659851,2167
1776901659853,2176
1776901659891,2176
1776901659893,2174
1776901659895,2171
1776901659897,2137
1776901659899,2221
1776901659901,2280
1776901659903,2314
1776901659905,2317
1776901659907,2288
1776901659909,2246
1776901659891,2199
1776901659893,2143
1776901659895,2106
1776901659897,2075
1776901659899,2060
1776901659901,2063
1776901659903,2079
1776901659905,2106
1776901659907,2139
1776901659909,2173
1776901659925,2222
1776901659927,2284
1776901659929,2367
1776901659931,2475
1776901659933,2609
1776901659935,2746
1776901659937,2958
1776901659939,3187
1776901659941,3406
1776901659943,3604
1776901659925,3746
1776901659927,3840
1776901659929,3840
1776901659931,3750
1776901659933,3574
1776901659935,3337
1776901659937,3044
1776901659939,2703
1776901659941,2333
1776901659943,1984
1776901659970,1693
1776901659972,1499
1776901659974,1385
1776901659976,1344
1776901659978,1352
1776901659980,1403
1776901659982,1480
1776901659984,1566
1776901659986,1615
1776901659988,1720
1776901659970,1788
1776901659972,1826
1776901659974,1856
1776901659976,1884
1776901659978,1905
1776901659980,1939
1776901659982,1975
1776901659984,2015
1776901659986,2046
1776901659988,2080
1776901660019,2106
1776901660021,2124
1776901660023,2143
1776901660025,2164
1776901660027,2179
1776901660029,2200
1776901660031,2224
1776901660033,2249
1776901660035,2266
1776901660037,2272
1776901660019,2241
1776901660021,2268
1776901660023,2328
1776901660025,2363
1776901660027,2381
1776901660029,2381
1776901660031,2366
1776901660033,2337
1776901660035,2304
1776901660037,2269
1776901660019,2232
1776901660021,2211
1776901660023,2194
1776901660025,2202
1776901660027,2215
1776901660029,2236
1776901660031,2259
1776901660033,2282
1776901660035,2295
1776901660037,2297
1776901660060,2299
1776901660062,2298
1776901660064,2307
1776901660066,2278
1776901660068,2366
1776901660070,2429
1776901660072,2471
1776901660074,2484
1776901660076,2469
1776901660078,2437
1776901660060,2398
1776901660062,2361
1776901660064,2337
1776901660066,2328
1776901660068,2329
1776901660070,2348
1776901660072,2380
1776901660074,2405
1776901660076,2424
1776901660078,2437
1776901660115,2442
1776901660117,2456
1776901660119,2469
1776901660121,2491
1776901660123,2517
1776901660125,2522
1776901660127,2587
1776901660129,2648
1776901660131,2685
1776901660133,2694
1776901660115,2683
1776901660117,2666
1776901660119,2644
1776901660121,2626
1776901660123,2619
1776901660125,2626
1776901660127,2633
1776901660129,2639
1776901660131,2635
1776901660133,2631
1776901660150,2624
1776901660152,2616
1776901660154,2616
1776901660156,2615
1776901660158,2618
1776901660160,2626
1776901660162,2632
1776901660164,2630
1776901660166,2597
1776901660168,2623
1776901660150,2619
1776901660152,2600
1776901660154,2574
1776901660156,2539
1776901660158,2505
1776901660160,2471
1776901660162,2435
1776901660164,2402
1776901660166,2374
1776901660168,2344
1776901660150,2310
1776901660152,2284
1776901660154,2260
1776901660156,2247
1776901660158,2244
1776901660160,2239
1776901660162,2238
1776901660164,2237
1776901660166,2229
1776901660168,2217
1776901660195,2165
1776901660197,2176
1776901660199,2223
1776901660201,2248
1776901660203,2250
1776901660205,2235
1776901660207,2208
1776901660209,2172
1776901660211,2133
1776901660213,2095
1776901660195,2059
1776901660197,2024
1776901660199,2016
1776901660201,2011
1776901660203,2012
1776901660205,2028
1776901660207,2043
1776901660209,2058
1776901660211,2067
1776901660213,2079
1776901660243,2080
1776901660245,2083
1776901660247,2085
1776901660249,2065
1776901660251,2126
1776901660253,2167
1776901660255,2193
1776901660257,2200
1776901660259,2184
1776901660261,2154
1776901660243,2111
1776901660245,2080
1776901660247,2055
1776901660249,2047
1776901660251,2056
1776901660253,2077
1776901660255,2098
1776901660257,2114
1776901660259,2123
1776901660261,2119
1776901660285,2110
1776901660287,2109
1776901660289,2106
1776901660291,2113
1776901660293,2126
1776901660295,2115
1776901660297,2168
1776901660299,2220
1776901660301,2246
1776901660303,2245
1776901660285,2225
1776901660287,2185
1776901660289,2158
1776901660291,2128
1776901660293,2110
1776901660295,2108
1776901660297,2117
1776901660299,2130
1776901660301,2139
1776901660303,2138
1776901660339,2135
1776901660341,2130
1776901660343,2128
1776901660345,2132
1776901660347,2146
1776901660349,2172
1776901660351,2196
1776901660353,2210
1776901660355,2192
1776901660357,2248
1776901660339,2266
1776901660341,2276
1776901660343,2263
1776901660345,2243
1776901660347,2211
1776901660349,2206
1776901660351,2199
1776901660353,2184
1776901660355,2168
1776901660357,2154
1776901660375,2136
1776901660377,2132
1776901660379,2133
1776901660381,2141
1776901660383,2151
1776901660385,2168
1776901660387,2183
1776901660389,2190
1776901660391,2189
1776901660393,2184
1776901660375,2146
1776901660377,2170
1776901660379,2205
1776901660381,2226
1776901660383,2229
1776901660385,2227
1776901660387,2219
1776901660389,2200
1776901660391,2181
1776901660393,2158
1776901660375,2132
1776901660377,2113
1776901660379,2102
1776901660381,2098
1776901660383,2107
1776901660385,2123
1776901660387,2134
1776901660389,2140
1776901660391,2140
1776901660393,2133
1776901660420,2124
1776901660422,2119
1776901660424,2116
1776901660426,2077
1776901660428,2158
1776901660430,2212
1776901660432,2244
1776901660434,2237
1776901660436,2204
1776901660438,2154
1776901660420,2101
1776901660422,2055
1776901660424,2023
1776901660426,2004
1776901660428,1999
1776901660430,2011
1776901660432,2019
1776901660434,2034
1776901660436,2038
1776901660438,2038
1776901660467,2034
1776901660469,2029
1776901660471,2033
1776901660473,2039
1776901660475,2049
1776901660477,2032
1776901660479,2080
1776901660481,2119
1776901660483,2136
1776901660485,2129
1776901660467,2101
1776901660469,2063
1776901660471,2034
1776901660473,2014
1776901660475,2005
1776901660477,2011
1776901660479,2031
1776901660481,2047
1776901660483,2058
1776901660485,2070
1776901660510,2070
1776901660512,2080
1776901660514,2087
1776901660516,2102
1776901660518,2118
1776901660520,2146
1776901660522,2167
1776901660524,2178
1776901660526,2156
1776901660528,2208
1776901660510,2221
1776901660512,2218
1776901660514,2200
1776901660516,2178
1776901660518,2153
1776901660520,2148
1776901660522,2132
1776901660524,2117
1776901660526,2096
1776901660528,2072
1776901660563,2042
1776901660565,2013
1776901660567,2001
1776901660569,1992
1776901660571,1991
1776901660573,1999
1776901660575,2012
1776901660577,2019
1776901660579,2028
1776901660581,2027
1776901660563,1995
1776901660565,2025
1776901660567,2068
1776901660569,2098
1776901660571,2109
1776901660573,2109
1776901660575,2097
1776901660577,2080
1776901660579,2054
1776901660581,2027
1776901660563,1994
1776901660565,1980
1776901660567,1969
1776901660569,1970
1776901660571,1975
1776901660573,1990
1776901660575,2003
1776901660577,2011
1776901660579,2012
1776901660581,2012
1776901660600,2007
1776901660602,2005
1776901660604,2000
1776901660606,1958
1776901660608,2037
1776901660610,2100
1776901660612,2133
1776901660614,2136
1776901660616,2100
1776901660618,2041
1776901660600,1974
1776901660602,1915
1776901660604,1880
1776901660606,1870
1776901660608,1883
1776901660610,1924
1776901660612,1988
1776901660614,2073
1776901660616,2171
1776901660618,2281
1776901660660,2413
1776901660662,2575
1776901660664,2764
1776901660666,2966
1776901660668,3172
1776901660670,3353
1776901660672,3548
1776901660674,3704
1776901660676,3770
1776901660678,3708
1776901660660,3519
1776901660662,3250
1776901660664,2922
1776901660666,2560
1776901660668,2194
1776901660670,1880
1776901660672,1636
1776901660674,1462
1776901660676,1346
1776901660678,1285
1776901660708,1255
1776901660710,1264
1776901660712,1291
1776901660714,1340
1776901660716,1404
1776901660718,1479
1776901660720,1557
1776901660722,1617
1776901660724,1639
1776901660726,1738
1776901660708,1812
1776901660710,1857
1776901660712,1899
1776901660714,1918
1776901660716,1928
1776901660718,1940
1776901660720,1950
1776901660722,1954
1776901660724,1956
1776901660726,1955
1776901660708,1949
1776901660710,1951
1776901660712,1956
1776901660714,1966
1776901660716,1981
1776901660718,2003
1776901660720,2029
1776901660722,2053
1776901660724,2070
1776901660726,2081
1776901660741,2042
1776901660743,2068
1776901660745,2140
1776901660747,2185
1776901660749,2201
1776901660751,2198
1776901660753,2176
1776901660755,2140
1776901660757,2102
1776901660759,2064
1776901660741,2034
1776901660743,2021
1776901660745,2017
1776901660747,2025
1776901660749,2034
1776901660751,2054
1776901660753,2077
1776901660755,2094
1776901660757,2107
1776901660759,2116
1776901660788,2123
1776901660790,2125
1776901660792,2141
1776901660794,2130
1776901660796,2209
1776901660798,2265
1776901660800,2301
1776901660802,2315
1776901660804,2304
1776901660806,2281
1776901660788,2252
1776901660790,2229
1776901660792,2221
1776901660794,2221
1776901660796,2233
1776901660798,2262
1776901660800,2287
1776901660802,2310
1776901660804,2328
1776901660806,2340
1776901660829,2348
1776901660831,2363
1776901660833,2381
1776901660835,2405
1776901660837,2425
1776901660839,2421
1776901660841,2476
1776901660843,2539
1776901660845,2581
1776901660847,2588
1776901660829,2565
1776901660831,2538
1776901660833,2510
1776901660835,2489
1776901660837,2475
1776901660839,2477
1776901660841,2478
1776901660843,2479
1776901660845,2479
1776901660847,2475
1776901660884,2468
1776901660886,2448
1776901660888,2444
1776901660890,2441
1776901660892,2440
1776901660894,2447
1776901660896,2451
1776901660898,2445
1776901660900,2401
1776901660902,2441
1776901660884,2443
1776901660886,2430
1776901660888,2395
1776901660890,2348
1776901660892,2292
1776901660894,2259
1776901660896,2223
1776901660898,2191
1776901660900,2168
1776901660902,2141
1776901660884,2114
1776901660886,2098
1776901660888,2087
1776901660890,2084
1776901660892,2077
1776901660894,2085
1776901660896,2091
1776901660898,2092
1776901660900,2085
1776901660902,2069
1776901660916,2018
1776901660918,2028
1776901660920,2083
1776901660922,2119
1776901660924,2131
1776901660926,2128
1776901660928,2098
1776901660930,2059
1776901660932,2015
1776901660934,1977
1776901660916,1943
1776901660918,1912
1776901660920,1906
1776901660922,1906
1776901660924,1916
1776901660926,1939
1776901660928,1949
1776901660930,1958
1776901660932,1956
1776901660934,1956
1776901660960,1949
1776901660962,1945
1776901660964,1948
1776901660966,1932
1776901660968,2003
1776901660970,2058
1776901660972,2088
1776901660974,2094
1776901660976,2074
1776901660978,2045
1776901660960,2005
1776901660962,1977
1776901660964,1956
1776901660966,1950
1776901660968,1959
1776901660970,1976
1776901660972,1994
1776901660974,2007
1776901660976,2016
1776901660978,2014
1776901661011,2008
1776901661013,2011
1776901661015,2016
1776901661017,2025
1776901661019,2040
1776901661021,2031
1776901661023,2077
1776901661025,2120
1776901661027,2137
1776901661029,2135
1776901661011,2115
1776901661013,2085
1776901661015,2063
1776901661017,2048
1776901661019,2039
1776901661021,2042
1776901661023,2050
1776901661025,2055
1776901661027,2055
1776901661029,2056
1776901661051,2048
1776901661053,2047
1776901661055,2054
1776901661057,2065
1776901661059,2077
1776901661061,2097
1776901661063,2115
1776901661065,2120
1776901661067,2097
1776901661069,2149
1776901661051,2163
1776901661053,2172
1776901661055,2162
1776901661057,2147
1776901661059,2124
1776901661061,2120
1776901661063,2112
1776901661065,2101
1776901661067,2093
1776901661069,2087
1776901661108,2074
1776901661110,2067
1776901661112,2068
1776901661114,2077
1776901661116,2092
1776901661118,2115
1776901661120,2134
1776901661122,2148
1776901661124,2152
1776901661126,2153
1776901661108,2129
1776901661110,2130
1776901661112,2199
1776901661114,2237
1776901661116,2251
1776901661118,2248
1776901661120,2225
1776901661122,2190
1776901661124,2147
1776901661126,2108
1776901661108,2068
1776901661110,2046
1776901661112,2035
1776901661114,2036
1776901661116,2046
1776901661118,2069
1776901661120,2086
1776901661122,2093
1776901661124,2090
1776901661126,2087
1776901661140,2074
1776901661142,2067
1776901661144,2071
1776901661146,2035
1776901661148,2110
1776901661150,2166
1776901661152,2202
1776901661154,2205
1776901661156,2178
1776901661158,2137
1776901661140,2085
1776901661142,2048
1776901661144,2024
1776901661146,2012
1776901661148,2007
1776901661150,2011
1776901661152,2017
1776901661154,2020
1776901661156,2016
1776901661158,2014
1776901661185,2012
1776901661187,2006
1776901661189,2015
1776901661191,2027
1776901661193,2039
1776901661195,2029
1776901661197,2077
1776901661199,2125
1776901661201,2155
1776901661203,2162
1776901661185,2146
1776901661187,2124
1776901661189,2109
1776901661191,2093
1776901661193,2079
1776901661195,2079
1776901661197,2084
1776901661199,2086
1776901661201,2082
1776901661203,2081
1776901661235,2067
1776901661237,2068
1776901661239,2073
1776901661241,2086
1776901661243,2106
1776901661245,2137
1776901661247,2166
1776901661249,2183
1776901661251,2169
1776901661253,2227
1776901661235,2257
1776901661237,2282
1776901661239,2294
1776901661241,2296
1776901661243,2282
1776901661245,2274
1776901661247,2257
1776901661249,2233
1776901661251,2209
1776901661253,2191
1776901661275,2173
1776901661277,2156
1776901661279,2161
1776901661281,2167
1776901661283,2180
1776901661285,2201
1776901661287,2216
1776901661289,2223
1776901661291,2221
1776901661293,2215
1776901661275,2176
1776901661277,2176
1776901661279,2226
1776901661281,2249
1776901661283,2244
1776901661285,2224
1776901661287,2186
1776901661289,2141
1776901661291,2093
1776901661293,2054
1776901661275,2019
1776901661277,2011
1776901661279,2006
1776901661281,2013
1776901661283,2023
1776901661285,2046
1776901661287,2062
1776901661289,2069
1776901661291,2069
1776901661293,2069
1776901661331,2058
1776901661333,2065
1776901661335,2068
1776901661337,2043
1776901661339,2122
1776901661341,2178
1776901661343,2206
1776901661345,2202
1776901661347,2178
1776901661349,2136
1776901661331,2088
1776901661333,2042
1776901661335,2024
1776901661337,2016
1776901661339,2015
1776901661341,2029
1776901661343,2036
1776901661345,2040
1776901661347,2040
1776901661349,2033
1776901661366,2024
1776901661368,2012
1776901661370,2008
1776901661372,2021
1776901661374,2047
1776901661376,2059
1776901661378,2135
1776901661380,2220
1776901661382,2306
1776901661384,2388
1776901661366,2471
1776901661368,2578
1776901661370,2711
1776901661372,2885
1776901661374,3072
1776901661376,3284
1776901661378,3492
1776901661380,3677
1776901661382,3821
1776901661384,3900
1776901661411,3891
1776901661413,3787
1776901661415,3596
1776901661417,3353
1776901661419,3068
1776901661421,2764
1776901661423,2465
1776901661425,2195
1776901661427,1945
1776901661429,1819
1776901661411,1725
1776901661413,1665
1776901661415,1637
1776901661417,1624
1776901661419,1635
1776901661421,1667
1776901661423,1716
1776901661425,1764
1776901661427,1807
1776901661429,1847
1776901661411,1886
1776901661413,1930
1776901661415,1985
1776901661417,2044
1776901661419,2103
1776901661421,2158
1776901661423,2199
1776901661425,2227
1776901661427,2238
1776901661429,2242
1776901661461,2202
1776901661463,2217
1776901661465,2276
1776901661467,2317
1776901661469,2334
1776901661471,2331
1776901661473,2309
1776901661475,2275
1776901661477,2234
1776901661479,2194
1776901661461,2158
1776901661463,2139
1776901661465,2135
1776901661467,2138
1776901661469,2150
1776901661471,2175
1776901661473,2194
1776901661475,2212
1776901661477,2220
1776901661479,2225
1776901661500,2225
1776901661502,2224
1776901661504,2240
1776901661506,2235
1776901661508,2305
1776901661510,2356
1776901661512,2387
1776901661514,2387
1776901661516,2368
1776901661518,2339
1776901661500,2310
1776901661502,2283
1776901661504,2277
1776901661506,2280
1776901661508,2294
1776901661510,2319
1776901661512,2340
1776901661514,2353
1776901661516,2363
1776901661518,2370
1776901661555,2371
1776901661557,2381
1776901661559,2393
1776901661561,2415
1776901661563,2445
1776901661565,2452
1776901661567,2509
1776901661569,2563
1776901661571,2592
1776901661573,2601
1776901661555,2584
1776901661557,2567
1776901661559,2556
1776901661561,2551
1776901661563,2551
1776901661565,2567
1776901661567,2584
1776901661569,2602
1776901661571,2613
1776901661573,2618
1776901661590,2624
1776901661592,2625
1776901661594,2639
1776901661596,2656
1776901661598,2670
1776901661600,2692
1776901661602,2708
1776901661604,2709
1776901661606,2674
1776901661608,2713
1776901661590,2723
1776901661592,2718
1776901661594,2707
1776901661596,2679
1776901661598,2645
1776901661600,2626
1776901661602,2603
1776901661604,2575
1776901661606,2547
1776901661608,2518
1776901661590,2484
1776901661592,2466
1776901661594,2453
1776901661596,2445
1776901661598,2438
1776901661600,2432
1776901661602,2426
1776901661604,2413
1776901661606,2393
1776901661608,2366
1776901661635,2301
1776901661637,2298
1776901661639,2338
1776901661641,2360
1776901661643,2356
1776901661645,2338
1776901661647,2290
1776901661649,2237
1776901661651,2178
1776901661653,2125
1776901661635,2077
1776901661637,2038
1776901661639,2026
1776901661641,2021
1776901661643,2026
1776901661645,2041
1776901661647,2051
1776901661649,2058
1776901661651,2054
1776901661653,2047
1776901661684,2041
1776901661686,2031
1776901661688,2027
1776901661690,1996
1776901661692,2056
1776901661694,2104
1776901661696,2130
1776901661698,2130
1776901661700,2116
1776901661702,2089
1776901661684,2050
1776901661686,2027
1776901661688,2003
1776901661690,1993
1776901661692,1998
1776901661694,2012
1776901661696,2029
1776901661698,2044
1776901661700,2048
1776901661702,2048
1776901661725,2042
1776901661727,2046
1776901661729,2049
1776901661731,2060
1776901661733,2077
1776901661735,2068
1776901661737,2116
1776901661739,2160
1776901661741,2182
1776901661743,2181
1776901661725,2161
1776901661727,2128
1776901661729,2108
1776901661731,2095
1776901661733,2083
1776901661735,2085
1776901661737,2087
1776901661739,2091
1776901661741,2092
1776901661743,2092
1776901661780,2092
1776901661782,2095
1776901661784,2106
1776901661786,2120
1776901661788,2139
1776901661790,2163
1776901661792,2184
1776901661794,2194
1776901661796,2169
1776901661798,2222
1776901661780,2241
1776901661782,2253
1776901661784,2247
1776901661786,2234
1776901661788,2218
1776901661790,2209
1776901661792,2199
1776901661794,2191
1776901661796,2181
1776901661798,2171
1776901661815,2157
1776901661817,2153
1776901661819,2158
1776901661821,2170
1776901661823,2187
1776901661825,2204
1776901661827,2216
1776901661829,2224
1776901661831,2225
1776901661833,2224
1776901661815,2193
1776901661817,2222
1776901661819,2269
1776901661821,2297
1776901661823,2307
1776901661825,2305
1776901661827,2291
1776901661829,2265
1776901661831,2236
1776901661833,2209
1776901661815,2182
1776901661817,2166
1776901661819,2167
1776901661821,2170
1776901661823,2180
1776901661825,2198
1776901661827,2208
1776901661829,2214
1776901661831,2210
1776901661833,2200
1776901661875,2194
1776901661877,2192
1776901661879,2197
1776901661881,2161
1776901661883,2248
1776901661885,2309
1776901661887,2341
1776901661889,2335
1776901661891,2305
1776901661893,2254
1776901661875,2198
1776901661877,2158
1776901661879,2129
1776901661881,2115
1776901661883,2116
1776901661885,2131
1776901661887,2141
1776901661889,2149
1776901661891,2148
1776901661893,2145
1776901661907,2142
1776901661909,2138
1776901661911,2152
1776901661913,2161
1776901661915,2170
1776901661917,2148
1776901661919,2191
1776901661921,2226
1776901661923,2242
1776901661925,2235
1776901661950,2212
1776901661952,2185
1776901661954,2161
1776901661956,2142
1776901661958,2128
1776901661960,2133
1776901661962,2138
1776901661964,2139
1776901661966,2137
1776901661968,2133
1776901661950,2124
1776901661952,2131
1776901661954,2139
1776901661956,2151
1776901661958,2165
1776901661960,2180
1776901661962,2192
1776901661964,2195
1776901661966,2184
1776901661968,2207
1776901661950,2210
1776901661952,2214
1776901661954,2214
1776901661956,2217
1776901661958,2219
1776901661960,2231
1776901661962,2234
1776901661964,2233
1776901661966,2229
1776901661968,2216
1776901662003,2207
1776901662005,2207
1776901662007,2229
1776901662009,2251
1776901662011,2277
1776901662013,2308
1776901662015,2333
1776901662017,2351
1776901662019,2365
1776901662021,2373
1776901662003,2344
1776901662005,2371
1776901662007,2450
1776901662009,2490
1776901662011,2498
1776901662013,2487
1776901662015,2455
1776901662017,2408
1776901662019,2352
1776901662021,2297
1776901662003,2247
1776901662005,2221
1776901662007,2212
1776901662009,2216
1776901662011,2228
1776901662013,2246
1776901662015,2254
1776901662017,2252
1776901662019,2242
1776901662021,2223
1776901662040,2198
1776901662042,2178
1776901662044,2162
1776901662046,2108
1776901662048,2186
1776901662050,2240
1776901662052,2270
1776901662054,2265
1776901662056,2235
1776901662058,2194
1776901662040,2144
1776901662042,2099
1776901662044,2079
1776901662046,2064
1776901662048,2059
1776901662050,2066
1776901662052,2073
1776901662054,2077
1776901662056,2077
1776901662058,2076
1776901662099,2071
1776901662101,2074
1776901662103,2086
1776901662105,2097
1776901662107,2108
1776901662109,2096
1776901662111,2136
1776901662113,2172
1776901662115,2190
1776901662117,2186
1776901662099,2158
1776901662101,2140
1776901662103,2120
1776901662105,2107
1776901662107,2096
1776901662109,2099
1776901662111,2099
1776901662113,2090
1776901662115,2076
1776901662117,2054
1776901662131,2037
1776901662133,2031
1776901662135,2045
1776901662137,2078
1776901662139,2124
1776901662141,2196
1776901662143,2283
1776901662145,2378
1776901662147,2451
1776901662149,2637
1776901662131,2823
1776901662133,3030
1776901662135,3246
1776901662137,3456
1776901662139,3655
1776901662141,3828
1776901662143,3946
1776901662145,3980
1776901662147,3923
1776901662149,3763
1776901662131,3518
1776901662133,3237
1776901662135,2918
1776901662137,2580
1776901662139,2261
1776901662141,1998
1776901662143,1800
1776901662145,1661
1776901662147,1576
1776901662149,1529
1776901662175,1479
1776901662177,1515
1776901662179,1614
1776901662181,1694
1776901662183,1757
1776901662185,1805
1776901662187,1835
1776901662189,1846
1776901662191,1849
1776901662193,1847
1776901662175,1854
1776901662177,1875
1776901662179,1909
1776901662181,1951
1776901662183,1993
1776901662185,2023
1776901662187,2046
1776901662189,2053
1776901662191,2053
1776901662193,2046
1776901662229,2045
1776901662231,2048
1776901662233,2061
1776901662235,2046
1776901662237,2119
1776901662239,2172
1776901662241,2201
1776901662243,2208
1776901662245,2192
1776901662247,2167
1776901662229,2137
1776901662231,2120
1776901662233,2114
1776901662235,2120
1776901662237,2127
1776901662239,2138
1776901662241,2152
1776901662243,2161
1776901662245,2169
1776901662247,2169
1776901662276,2168
1776901662278,2180
1776901662280,2192
1776901662282,2209
1776901662284,2231
1776901662286,2232
1776901662288,2279
1776901662290,2330
1776901662292,2357
1776901662294,2357
1776901662276,2336
1776901662278,2316
1776901662280,2296
1776901662282,2291
1776901662284,2292
1776901662286,2306
1776901662288,2315
1776901662290,2319
1776901662292,2321
1776901662294,2323
1776901662323,2330
1776901662325,2340
1776901662327,2366
1776901662329,2392
1776901662331,2426
1776901662333,2459
1776901662335,2485
1776901662337,2497
1776901662339,2477
1776901662341,2534
1776901662323,2563
1776901662325,2585
1776901662327,2596
1776901662329,2598
1776901662331,2594
1776901662333,2596
1776901662335,2595
1776901662337,2589
1776901662339,2582
1776901662341,2574
1776901662323,2563
1776901662325,2570
1776901662327,2578
1776901662329,2593
1776901662331,2603
1776901662333,2616
1776901662335,2623
1776901662337,2622
1776901662339,2614
1776901662341,2602
1776901662451,2556
1776901662453,2563
1776901662455,2619
1776901662457,2648
1776901662459,2651
1776901662461,2627
1776901662463,2576
1776901662465,2512
1776901662467,2446
1776901662469,2383
1776901662451,2332
1776901662453,2295
1776901662455,2283
1776901662457,2270
1776901662459,2263
1776901662461,2264
1776901662463,2260
1776901662465,2249
1776901662467,2231
1776901662469,2212
1776901662451,2195
1776901662453,2185
1776901662455,2179
1776901662457,2163
1776901662459,2189
1776901662461,2202
1776901662463,2200
1776901662465,2186
1776901662467,2159
1776901662469,2124
1776901662451,2093
1776901662453,2077
1776901662455,2066
1776901662457,2062
1776901662459,2066
1776901662461,2074
1776901662463,2077
1776901662465,2080
1776901662467,2082
1776901662469,2079
1776901662451,2068
1776901662453,2073
1776901662455,2078
1776901662457,2095
1776901662459,2105
1776901662461,2105
1776901662463,2131
1776901662465,2147
1776901662467,2156
1776901662469,2152
1776901662451,2139
1776901662453,2126
1776901662455,2128
1776901662457,2132
1776901662459,2138
1776901662461,2155
1776901662463,2167
1776901662465,2176
1776901662467,2179
1776901662469,2174
1776901662490,2168
1776901662492,2168
1776901662494,2178
1776901662496,2191
1776901662498,2210
1776901662500,2232
1776901662502,2247
1776901662504,2249
1776901662506,2200
1776901662508,2227
1776901662490,2313
1776901662492,2364
1776901662494,2371
1776901662496,2340
1776901662498,2277
1776901662500,2216
1776901662502,2144
1776901662504,2077
1776901662506,2021
1776901662508,1981
1776901662547,1955
1776901662549,1948
1776901662551,1946
1776901662553,1958
1776901662555,1973
1776901662557,1996
1776901662559,2008
1776901662561,2016
1776901662563,2013
1776901662565,2013
1776901662547,1989
1776901662549,2018
1776901662551,2061
1776901662553,2096
1776901662555,2112
1776901662557,2116
1776901662559,2097
1776901662561,2066
1776901662563,2037
1776901662565,2008
1776901662547,1991
1776901662549,1987
1776901662551,2002
1776901662553,2018
1776901662555,2037
1776901662557,2057
1776901662559,2064
1776901662561,2066
1776901662563,2065
1776901662565,2061
1776901662580,2060
1776901662582,2073
1776901662584,2084
1776901662586,2055
1776901662588,2137
1776901662590,2198
1776901662592,2229
1776901662594,2220
1776901662596,2187
1776901662598,2136
1776901662580,2083
1776901662582,2048
1776901662584,2028
1776901662586,2023
1776901662588,2031
1776901662590,2050
1776901662592,2059
1776901662594,2058
1776901662596,2054
1776901662598,2047
1776901662625,2044
1776901662627,2043
1776901662629,2061
1776901662631,2076
1776901662633,2093
1776901662635,2082
1776901662637,2115
1776901662639,2150
1776901662641,2163
1776901662643,2154
1776901662625,2128
1776901662627,2103
1776901662629,2081
1776901662631,2067
1776901662633,2057
1776901662635,2060
1776901662637,2059
1776901662639,2050
1776901662641,2042
1776901662643,2039
1776901662675,2034
1776901662677,2048
1776901662679,2055
1776901662681,2066
1776901662683,2086
1776901662685,2103
1776901662687,2113
1776901662689,2122
1776901662691,2094
1776901662693,2143
1776901662675,2168
1776901662677,2187
1776901662679,2186
1776901662681,2182
1776901662683,2162
1776901662685,2156
1776901662687,2133
1776901662689,2109
1776901662691,2084
1776901662693,2067
1776901662715,2057
1776901662717,2059
1776901662719,2081
1776901662721,2111
1776901662723,2143
1776901662725,2181
1776901662727,2211
1776901662729,2231
1776901662731,2244
1776901662733,2250
1776901662715,2227
1776901662717,2259
1776901662719,2313
1776901662721,2352
1776901662723,2370
1776901662725,2366
1776901662727,2343
1776901662729,2304
1776901662731,2261
1776901662733,2214
1776901662771,2174
1776901662773,2159
1776901662775,2155
1776901662777,2160
1776901662779,2171
1776901662781,2184
1776901662783,2186
1776901662785,2179
1776901662787,2167
1776901662789,2151
1776901662771,2138
1776901662773,2135
1776901662775,2135
1776901662777,2115
1776901662779,2196
1776901662781,2256
1776901662783,2287
1776901662785,2286
1776901662787,2255
1776901662789,2211
1776901662771,2165
1776901662773,2120
1776901662775,2097
1776901662777,2082
1776901662779,2080
1776901662781,2090
1776901662783,2098
1776901662785,2105
1776901662787,2101
1776901662789,2095
1776901662805,2089
1776901662807,2091
1776901662809,2108
1776901662811,2117
1776901662813,2136
1776901662815,2124
1776901662817,2148
1776901662819,2206
1776901662821,2235
1776901662823,2235
1776901662805,2203
1776901662807,2172
1776901662809,2133
1776901662811,2104
1776901662813,2085
1776901662815,2075
1776901662817,2064
1776901662819,2051
1776901662821,2033
1776901662823,2017
1776901662850,2011
1776901662852,2027
1776901662854,2063
1776901662856,2113
1776901662858,2176
1776901662860,2260
1776901662862,2361
1776901662864,2462
1776901662866,2550
1776901662868,2737
1776901662850,2928
1776901662852,3125
1776901662854,3326
1776901662856,3506
1776901662858,3664
1776901662860,3777
1776901662862,3818
1776901662864,3761
1776901662866,3610
1776901662868,3374
1776901662850,3081
1776901662852,2745
1776901662854,2378
1776901662856,2027
1776901662858,1737
1776901662860,1530
1776901662862,1406
1776901662864,1354
1776901662866,1349
1776901662868,1377
1776901662900,1402
1776901662902,1502
1776901662904,1649
1776901662906,1763
1776901662908,1835
1776901662910,1875
1776901662912,1878
1776901662914,1872
1776901662916,1859
1776901662918,1855
1776901662900,1859
1776901662902,1889
1776901662904,1925
1776901662906,1969
1776901662908,2015
1776901662910,2060
1776901662912,2090
1776901662914,2107
1776901662916,2116
1776901662918,2120
1776901662940,2122
1776901662942,2125
1776901662944,2140
1776901662946,2128
1776901662948,2192
1776901662950,2234
1776901662952,2254
1776901662954,2252
1776901662956,2232
1776901662958,2204
1776901662940,2180
1776901662942,2165
1776901662944,2168
1776901662946,2176
1776901662948,2189
1776901662950,2209
1776901662952,2226
1776901662954,2232
1776901662956,2239
1776901662958,2243
1776901662995,2245
1776901662997,2258
1776901662999,2270
1776901663001,2288
1776901663003,2308
1776901663005,2304
1776901663007,2344
1776901663009,2387
1776901663011,2414
1776901663013,2423
1776901662995,2412
1776901662997,2400
1776901662999,2390
1776901663001,2389
1776901663003,2392
1776901663005,2403
1776901663007,2406
1776901663009,2412
1776901663011,2418
1776901663013,2424
1776901663030,2430
1776901663032,2436
1776901663034,2457
1776901663036,2482
1776901663038,2512
1776901663040,2545
1776901663042,2570
1776901663044,2582
1776901663046,2557
1776901663048,2618
1776901663030,2652
1776901663032,2676
1776901663034,2684
1776901663036,2686
1776901663038,2676
1776901663040,2669
1776901663042,2654
1776901663044,2637
1776901663046,2625
1776901663048,2609
1776901663030,2599
1776901663032,2608
1776901663034,2622
1776901663036,2637
1776901663038,2657
1776901663040,2675
1776901663042,2680
1776901663044,2675
1776901663046,2666
1776901663048,2650
1776901663075,2606
1776901663077,2620
1776901663079,2676
1776901663081,2707
1776901663083,2712
1776901663085,2689
1776901663087,2641
1776901663089,2582
1776901663091,2516
1776901663093,2455
1776901663075,2404
1776901663077,2363
1776901663079,2342
1776901663081,2329
1776901663083,2320
1776901663085,2319
1776901663087,2307
1776901663089,2291
1776901663091,2270
1776901663093,2246
1776901663123,2223
1776901663125,2213
1776901663127,2207
1776901663129,2173
1776901663131,2234
1776901663133,2270
1776901663135,2276
1776901663137,2255
1776901663139,2221
1776901663141,2178
1776901663123,2135
1776901663125,2109
1776901663127,2092
1776901663129,2087
1776901663131,2090
1776901663133,2098
1776901663135,2098
1776901663137,2091
1776901663139,2087
1776901663141,2080
1776901663165,2072
1776901663167,2077
1776901663169,2085
1776901663171,2095
1776901663173,2110
1776901663175,2094
1776901663177,2129
1776901663179,2163
1776901663181,2178
1776901663183,2173
1776901663165,2153
1776901663167,2124
1776901663169,2109
1776901663171,2091
1776901663173,2086
1776901663175,2092
1776901663177,2090
1776901663179,2086
1776901663181,2078
1776901663183,2069
1776901663220,2068
1776901663222,2074
1776901663224,2091
1776901663226,2113
1776901663228,2136
1776901663230,2152
1776901663232,2157
1776901663234,2157
1776901663236,2113
1776901663238,2165
1776901663220,2187
1776901663222,2211
1776901663224,2211
1776901663226,2205
1776901663228,2188
1776901663230,2187
1776901663232,2174
1776901663234,2158
1776901663236,2143
1776901663238,2130
1776901663255,2126
1776901663257,2136
1776901663259,2153
1776901663261,2175
1776901663263,2195
1776901663265,2216
1776901663267,2230
1776901663269,2234
1776901663271,2230
1776901663273,2229
1776901663255,2193
1776901663257,2228
1776901663259,2275
1776901663261,2306
1776901663263,2319
1776901663265,2318
1776901663267,2295
1776901663269,2267
1776901663271,2238
1776901663273,2212
1776901663255,2187
1776901663257,2179
1776901663259,2184
1776901663261,2198
1776901663263,2215
1776901663265,2228
1776901663267,2237
1776901663269,2238
1776901663271,2235
1776901663273,2231
1776901663315,2224
1776901663317,2229
1776901663319,2234
1776901663321,2194
1776901663323,2282
1776901663325,2333
1776901663327,2357
1776901663329,2347
1776901663331,2310
1776901663333,2262
1776901663315,2210
1776901663317,2179
1776901663319,2152
1776901663321,2144
1776901663323,2145
1776901663325,2153
1776901663327,2153
1776901663329,2150
1776901663331,2144
1776901663333,2134
1776901663348,2130
1776901663350,2133
1776901663352,2150
1776901663354,2167
1776901663356,2183
1776901663358,2171
1776901663360,2208
1776901663362,2246
1776901663364,2259
1776901663366,2251
1776901663348,2224
1776901663350,2202
1776901663352,2181
1776901663354,2167
1776901663356,2155
1776901663358,2151
1776901663360,2145
1776901663362,2137
1776901663364,2128
1776901663366,2122
1776901663390,2118
1776901663392,2127
1776901663394,2134
1776901663396,2146
1776901663398,2162
1776901663400,2181
1776901663402,2186
1776901663404,2187
1776901663406,2145
1776901663408,2192
1776901663390,2211
1776901663392,2221
1776901663394,2222
1776901663396,2217
1776901663398,2198
1776901663400,2190
1776901663402,2178
1776901663404,2164
1776901663406,2153
1776901663408,2149
1776901663444,2151
1776901663446,2164
1776901663448,2185
1776901663450,2211
1776901663452,2227
1776901663454,2241
1776901663456,2242
1776901663458,2246
1776901663460,2242
1776901663462,2241
1776901663444,2211
1776901663446,2231
1776901663448,2273
1776901663450,2303
1776901663452,2310
1776901663454,2295
1776901663456,2265
1776901663458,2222
1776901663460,2178
1776901663462,2138
1776901663444,2103
1776901663446,2089
1776901663448,2080
1776901663450,2078
1776901663452,2080
1776901663454,2087
1776901663456,2088
1776901663458,2088
1776901663460,2085
1776901663462,2081
1776901663480,2076
1776901663482,2091
1776901663484,2105
1776901663486,2076
1776901663488,2170
1776901663490,2229
1776901663492,2258
1776901663494,2250
1776901663496,2217
1776901663498,2169
1776901663480,2123
1776901663482,2081
1776901663484,2059
1776901663486,2047
1776901663488,2047
1776901663490,2056
1776901663492,2058
1776901663494,2057
1776901663496,2051
1776901663498,2044
1776901663539,2042
1776901663541,2048
1776901663543,2062
1776901663545,2077
1776901663547,2097
1776901663549,2088
1776901663551,2129
1776901663553,2168
1776901663555,2186
1776901663557,2178
1776901663539,2145
1776901663541,2116
1776901663543,2090
1776901663545,2077
1776901663547,2082
1776901663549,2098
1776901663551,2130
1776901663553,2187
1776901663555,2263
1776901663557,2362
1776901663571,2476
1776901663573,2628
1776901663575,2804
1776901663577,2998
1776901663579,3204
1776901663581,3410
1776901663583,3588
1776901663585,3730
1776901663587,3802
1776901663589,3818
1776901663571,3739
1776901663573,3553
1776901663575,3289
1776901663577,2962
1776901663579,2595
1776901663581,2230
1776901663583,1899
1776901663585,1645
1776901663587,1480
1776901663589,1390
1776901663571,1359
1776901663573,1379
1776901663575,1431
1776901663577,1500
1776901663579,1578
1776901663581,1652
1776901663583,1706
1776901663585,1748
1776901663587,1788
1776901663589,1826
1776901663615,1829
1776901663617,1890
1776901663619,2004
1776901663621,2096
1776901663623,2156
1776901663625,2181
1776901663627,2171
1776901663629,2146
1776901663631,2110
1776901663633,2076
1776901663615,2050
1776901663617,2041
1776901663619,2040
1776901663621,2045
1776901663623,2057
1776901663625,2072
1776901663627,2080
1776901663629,2081
1776901663631,2084
1776901663633,2084
1776901663669,2094
1776901663671,2103
1776901663673,2128
1776901663675,2114
1776901663677,2184
1776901663679,2227
1776901663681,2251
1776901663683,2248
1776901663685,2229
1776901663687,2200
1776901663669,2167
1776901663671,2155
1776901663673,2151
1776901663675,2160
1776901663677,2173
1776901663679,2187
1776901663681,2201
1776901663683,2209
1776901663685,2217
1776901663687,2222
1776901663719,2229
1776901663721,2245
1776901663723,2264
1776901663725,2287
1776901663727,2309
1776901663729,2305
1776901663731,2340
1776901663733,2377
1776901663735,2401
1776901663737,2408
1776901663719,2401
1776901663721,2390
1776901663723,2382
1776901663725,2380
1776901663727,2382
1776901663729,2396
1776901663731,2403
1776901663733,2404
1776901663735,2402
1776901663737,2405
1776901663765,2415
1776901663767,2429
1776901663769,2459
1776901663771,2487
1776901663773,2510
1776901663775,2536
1776901663777,2551
1776901663779,2562
1776901663781,2540
1776901663783,2593
1776901663765,2624
1776901663767,2650
1776901663769,2660
1776901663771,2659
1776901663773,2647
1776901663775,2631
1776901663777,2603
1776901663779,2570
1776901663781,2541
1776901663783,2514
1776901663765,2495
1776901663767,2493
1776901663769,2491
1776901663771,2497
1776901663773,2510
1776901663775,2517
1776901663777,2513
1776901663779,2502
1776901663781,2481
1776901663783,2459
1776901663797,2407
1776901663799,2405
1776901663801,2451
1776901663803,2475
1776901663805,2475
1776901663807,2448
1776901663809,2395
1776901663811,2330
1776901663813,2266
1776901663815,2202
1776901663797,2155
1776901663799,2114
1776901663801,2100
1776901663803,2096
1776901663805,2094
1776901663807,2097
1776901663809,2091
1776901663811,2080
1776901663813,2066
1776901663815,2054
1776901663840,2044
1776901663842,2049
1776901663844,2053
1776901663846,2035
1776901663848,2094
1776901663850,2127
1776901663852,2135
1776901663854,2119
1776901663856,2084
1776901663858,2045
1776901663840,2013
1776901663842,1998
1776901663844,1994
1776901663846,2001
1776901663848,2011
1776901663850,2023
1776901663852,2028
1776901663854,2028
1776901663856,2021
1776901663858,2017
1776901663893,2006
1776901663895,2010
1776901663897,2020
1776901663899,2034
1776901663901,2051
1776901663903,2039
1776901663905,2071
1776901663907,2102
1776901663909,2122
1776901663911,2124
1776901663893,2113
1776901663895,2089
1776901663897,2067
1776901663899,2052
1776901663901,2034
1776901663903,2027
1776901663905,2023
1776901663907,2017
1776901663909,2010
1776901663911,2008
1776901663930,2007
1776901663932,2015
1776901663934,2033
1776901663936,2052
1776901663938,2067
1776901663940,2087
1776901663942,2095
1776901663944,2099
1776901663946,2069
1776901663948,2117
1776901663930,2143
1776901663932,2164
1776901663934,2162
1776901663936,2159
1776901663938,2139
1776901663940,2129
1776901663942,2106
1776901663944,2086
1776901663946,2065
1776901663948,2055
1776901663989,2049
1776901663991,2058
1776901663993,2076
1776901663995,2098
1776901663997,2117
1776901663999,2141
1776901664001,2153
1776901664003,2159
1776901664005,2157
1776901664007,2152
1776901663989,2126
1776901663991,2149
1776901663993,2197
1776901663995,2229
1776901663997,2242
1776901663999,2239
1776901664001,2213
1776901664003,2175
1776901664005,2136
1776901664007,2105
1776901663989,2084
1776901663991,2079
1776901663993,2090
1776901663995,2107
1776901663997,2121
1776901663999,2136
1776901664001,2139
1776901664003,2140
1776901664005,2136
1776901664007,2134
1776901664021,2127
1776901664023,2138
1776901664025,2144
1776901664027,2110
1776901664029,2185
1776901664031,2234
1776901664033,2257
1776901664035,2246
1776901664037,2214
1776901664039,2170
1776901664021,2124
1776901664023,2089
1776901664025,2063
1776901664027,2053
1776901664029,2052
1776901664031,2057
1776901664033,2054
1776901664035,2055
1776901664037,2050
1776901664039,2047
1776901664065,2052
1776901664067,2059
1776901664069,2072
1776901664071,2086
1776901664073,2103
1776901664075,2093
1776901664077,2129
1776901664079,2166
1776901664081,2184
1776901664083,2180
1776901664065,2166
1776901664067,2147
1776901664069,2126
1776901664071,2109
1776901664073,2099
1776901664075,2092
1776901664077,2084
1776901664079,2076
1776901664081,2064
1776901664083,2057
1776901664117,2054
1776901664119,2069
1776901664121,2086
1776901664123,2106
1776901664125,2124
1776901664127,2142
1776901664129,2144
1776901664131,2139
1776901664133,2097
1776901664135,2133
1776901664117,2149
1776901664119,2165
1776901664121,2162
1776901664123,2155
1776901664125,2139
1776901664127,2140
1776901664129,2129
1776901664131,2120
1776901664133,2116
1776901664135,2119
1776901664155,2139
1776901664157,2155
1776901664159,2191
1776901664161,2222
1776901664163,2245
1776901664165,2260
1776901664167,2261
1776901664169,2257
1776901664171,2240
1776901664173,2225
1776901664155,2194
1776901664157,2220
1776901664159,2264
1776901664161,2299
1776901664163,2309
1776901664165,2296
1776901664167,2263
1776901664169,2222
1776901664171,2180
1776901664173,2146
1776901664155,2125
1776901664157,2120
1776901664159,2111
1776901664161,2105
1776901664163,2098
1776901664165,2086
1776901664167,2068
1776901664169,2053
1776901664171,2041
1776901664173,2038
1776901664213,2048
1776901664215,2069
1776901664217,2089
1776901664219,2064
1776901664221,2145
1776901664223,2192
1776901664225,2211
1776901664227,2200
1776901664229,2171
1776901664231,2132
1776901664213,2095
1776901664215,2064
1776901664217,2050
1776901664219,2042
1776901664221,2036
1776901664223,2032
1776901664225,2029
1776901664227,2021
1776901664229,2015
1776901664231,2006
1776901664245,2006
1776901664247,2015
1776901664249,2027
1776901664251,2044
1776901664253,2059
1776901664255,2044
1776901664257,2071
1776901664259,2103
1776901664261,2117
1776901664263,2110
1776901664245,2093
1776901664247,2071
1776901664249,2043
1776901664251,2022
1776901664253,2004
1776901664255,2006
1776901664257,2012
1776901664259,2034
1776901664261,2075
1776901664263,2141
1776901664290,2230
1776901664292,2352
1776901664294,2504
1776901664296,2698
1776901664298,2909
1776901664300,3135
1776901664302,3349
1776901664304,3544
1776901664306,3689
1776901664308,3829
1776901664290,3903
1776901664292,3870
1776901664294,3721
1776901664296,3483
1776901664298,3190
1776901664300,2862
1776901664302,2515
1776901664304,2193
1776901664306,1923
1776901664308,1716
1776901664290,1579
1776901664292,1502
1776901664294,1471
1776901664296,1474
1776901664298,1506
1776901664300,1553
1776901664302,1608
1776901664304,1666
1776901664306,1718
1776901664308,1766
1776901664342,1780
1776901664344,1852
1776901664346,1971
1776901664348,2069
1776901664350,2138
1776901664352,2166
1776901664354,2162
1776901664356,2137
1776901664358,2094
1776901664360,2054
1776901664342,2029
1776901664344,2029
1776901664346,2034
1776901664348,2047
1776901664350,2060
1776901664352,2079
1776901664354,2092
1776901664356,2100
1776901664358,2103
1776901664360,2104
1776901664381,2112
1776901664383,2120
1776901664385,2147
1776901664387,2141
1776901664389,2215
1776901664391,2262
1776901664393,2279
1776901664395,2272
1776901664397,2252
1776901664399,2223
1776901664381,2202
1776901664383,2187
1776901664385,2188
1776901664387,2198
1776901664389,2207
1776901664391,2218
1776901664393,2229
1776901664395,2231
1776901664397,2231
1776901664399,2237
1776901664436,2247
1776901664438,2269
1776901664440,2290
1776901664442,2312
1776901664444,2331
1776901664446,2315
1776901664448,2353
1776901664450,2397
1776901664452,2428
1776901664454,2435
1776901664436,2425
1776901664438,2419
1776901664440,2411
1776901664442,2409
1776901664444,2412
1776901664446,2416
1776901664448,2414
1776901664450,2412
1776901664452,2409
1776901664454,2410
1776901664470,2421
1776901664472,2438
1776901664474,2467
1776901664476,2492
1776901664478,2513
1776901664480,2530
1776901664482,2540
1776901664484,2544
1776901664486,2514
1776901664488,2572
1776901664470,2609
1776901664472,2632
1776901664474,2643
1776901664476,2638
1776901664478,2616
1776901664480,2602
1776901664482,2574
1776901664484,2549
1776901664486,2528
1776901664488,2511
1776901664470,2501
1776901664472,2506
1776901664474,2514
1776901664476,2523
1776901664478,2531
1776901664480,2538
1776901664482,2533
1776901664484,2514
1776901664486,2491
1776901664488,2466
1776901664515,2414
1776901664517,2422
1776901664519,2468
1776901664521,2499
1776901664523,2497
1776901664525,2471
1776901664527,2412
1776901664529,2342
1776901664531,2272
1776901664533,2215
1776901664515,2168
1776901664517,2131
1776901664519,2114
1776901664521,2102
1776901664523,2094
1776901664525,2091
1776901664527,2081
1776901664529,2066
1776901664531,2047
1776901664533,2030
1776901664565,2019
1776901664567,2017
1776901664569,2028
1776901664571,2005
1776901664573,2075
1776901664575,2113
1776901664577,2122
1776901664579,2106
1776901664581,2075
1776901664583,2046
1776901664565,2019
1776901664567,2011
1776901664569,2003
1776901664571,2008
1776901664573,2012
1776901664575,2016
1776901664577,2016
1776901664579,2015
1776901664581,2010
1776901664583,2009
1776901664606,2010
1776901664608,2024
1776901664610,2038
1776901664612,2059
1776901664614,2073
1776901664616,2056
1776901664618,2089
1776901664620,2120
1776901664622,2139
1776901664624,2141
1776901664606,2131
1776901664608,2108
1776901664610,2095
1776901664612,2081
1776901664614,2068
1776901664616,2063
1776901664618,2060
1776901664620,2049
1776901664622,2043
1776901664624,2038
1776901664661,2036
1776901664663,2043
1776901664665,2062
1776901664667,2081
1776901664669,2100
1776901664671,2116
1776901664673,2122
1776901664675,2122
1776901664677,2083
1776901664679,2141
1776901664661,2181
1776901664663,2208
1776901664665,2213
1776901664667,2203
1776901664669,2179
1776901664671,2166
1776901664673,2140
1776901664675,2114
1776901664677,2090
1776901664679,2073
1776901664695,2064
1776901664697,2072
1776901664699,2089
1776901664701,2106
1776901664703,2125
1776901664705,2137
1776901664707,2142
1776901664709,2145
1776901664711,2143
1776901664713,2140
1776901664695,2118
1776901664697,2153
1776901664699,2203
1776901664701,2242
1776901664703,2260
1776901664705,2256
1776901664707,2234
1776901664709,2203
