timestamp_ms,ecg_raw
1777572132095,2349
1777572132097,2318
1777572132099,2361
1777572132101,2363
1777572132103,2362
1777572132105,2361
1777572132107,2362
1777572132109,2365
1777572132111,2366
1777572132113,2368
1777572132095,2366
1777572132097,2363
1777572132099,2359
1777572132101,2356
1777572132103,2350
1777572132105,2360
1777572132107,2363
1777572132109,2353
1777572132111,2333
1777572132113,2319
1777572132188,2325
1777572132190,2339
1777572132192,2360
1777572132194,2358
1777572132196,2378
1777572132198,2395
1777572132200,2395
1777572132202,2395
1777572132204,2399
1777572132206,2398
1777572132188,2391
1777572132190,2374
1777572132192,2362
1777572132194,2359
1777572132196,2365
1777572132198,2376
1777572132200,2384
1777572132202,2392
1777572132204,2393
1777572132206,2386
1777572132188,2378
1777572132190,2376
1777572132192,2376
1777572132194,2378
1777572132196,2366
1777572132198,2367
1777572132200,2353
1777572132202,2393
1777572132204,2399
1777572132206,2403
1777572132188,2400
1777572132190,2397
1777572132192,2393
1777572132194,2395
1777572132196,2392
1777572132198,2395
1777572132200,2396
1777572132202,2403
1777572132204,2412
1777572132206,2425
1777572132230,2430
1777572132232,2430
1777572132234,2428
1777572132236,2426
1777572132238,2424
1777572132240,2423
1777572132242,2427
1777572132244,2429
1777572132246,2421
1777572132248,2408
1777572132230,2444
1777572132232,2435
1777572132234,2425
1777572132236,2419
1777572132238,2412
1777572132240,2413
1777572132242,2410
1777572132244,2409
1777572132246,2410
1777572132248,2405
1777572132230,2408
1777572132232,2406
1777572132234,2400
1777572132236,2397
1777572132238,2394
1777572132240,2403
1777572132242,2398
1777572132244,2377
1777572132246,2351
1777572132248,2341
1777572132289,2343
1777572132291,2306
1777572132293,2344
1777572132295,2352
1777572132297,2360
1777572132299,2371
1777572132301,2379
1777572132303,2381
1777572132305,2375
1777572132307,2365
1777572132289,2356
1777572132291,2340
1777572132293,2330
1777572132295,2324
1777572132297,2315
1777572132299,2320
1777572132301,2329
1777572132303,2333
1777572132305,2332
1777572132307,2324
1777572132320,2310
1777572132322,2312
1777572132324,2308
1777572132326,2292
1777572132328,2306
1777572132330,2331
1777572132332,2342
1777572132334,2345
1777572132336,2345
1777572132338,2336
1777572132320,2323
1777572132322,2309
1777572132324,2301
1777572132326,2306
1777572132328,2317
1777572132330,2331
1777572132332,2343
1777572132334,2345
1777572132336,2346
1777572132338,2350
1777572132365,2348
1777572132367,2347
1777572132369,2345
1777572132371,2344
1777572132373,2339
1777572132375,2344
1777572132377,2318
1777572132379,2347
1777572132381,2344
1777572132383,2350
1777572132365,2361
1777572132367,2367
1777572132369,2371
1777572132371,2388
1777572132373,2401
1777572132375,2416
1777572132377,2424
1777572132379,2411
1777572132381,2399
1777572132383,2408
1777572132413,2411
1777572132415,2413
1777572132417,2418
1777572132419,2425
1777572132421,2425
1777572132423,2419
1777572132425,2419
1777572132427,2417
1777572132429,2399
1777572132431,2407
1777572132413,2426
1777572132415,2420
1777572132417,2425
1777572132419,2425
1777572132421,2423
1777572132423,2427
1777572132425,2431
1777572132427,2436
1777572132429,2439
1777572132431,2442
1777572132413,2446
1777572132415,2456
1777572132417,2462
1777572132419,2474
1777572132421,2476
1777572132423,2493
1777572132425,2504
1777572132427,2509
1777572132429,2515
1777572132431,2498
1777572132455,2489
1777572132457,2451
1777572132459,2491
1777572132461,2504
1777572132463,2496
1777572132465,2491
1777572132467,2493
1777572132469,2501
1777572132471,2506
1777572132473,2507
1777572132509,2504
1777572132511,2501
1777572132513,2496
1777572132515,2495
1777572132517,2515
1777572132519,2530
1777572132521,2539
1777572132523,2547
1777572132525,2568
1777572132527,2584
1777572132509,2586
1777572132511,2583
1777572132513,2573
1777572132515,2545
1777572132517,2555
1777572132519,2566
1777572132521,2568
1777572132523,2572
1777572132525,2568
1777572132527,2567
1777572132509,2565
1777572132511,2571
1777572132513,2575
1777572132515,2585
1777572132517,2586
1777572132519,2588
1777572132521,2586
1777572132523,2583
1777572132525,2575
1777572132527,2563
1777572132545,2554
1777572132547,2543
1777572132549,2537
1777572132551,2535
1777572132553,2523
1777572132555,2520
1777572132557,2489
1777572132559,2536
1777572132561,2531
1777572132563,2515
1777572132545,2505
1777572132547,2495
1777572132549,2488
1777572132551,2467
1777572132553,2449
1777572132555,2459
1777572132557,2469
1777572132559,2474
1777572132561,2477
1777572132563,2476
1777572132606,2465
1777572132608,2455
1777572132610,2443
1777572132612,2441
1777572132614,2436
1777572132616,2439
1777572132618,2442
1777572132620,2442
1777572132622,2429
1777572132624,2437
1777572132606,2445
1777572132608,2429
1777572132610,2420
1777572132612,2408
1777572132614,2394
1777572132616,2396
1777572132618,2396
1777572132620,2393
1777572132622,2384
1777572132624,2388
1777572132606,2393
1777572132608,2393
1777572132610,2389
1777572132612,2381
1777572132614,2379
1777572132616,2380
1777572132618,2382
1777572132620,2390
1777572132622,2393
1777572132624,2384
1777572132638,2377
1777572132640,2343
1777572132642,2402
1777572132644,2423
1777572132646,2446
1777572132648,2473
1777572132650,2496
1777572132652,2521
1777572132654,2556
1777572132656,2601
1777572132680,2660
1777572132682,2734
1777572132684,2818
1777572132686,2895
1777572132688,2965
1777572132690,3020
1777572132692,3047
1777572132694,3041
1777572132696,3010
1777572132698,2971
1777572132680,2921
1777572132682,2845
1777572132684,2750
1777572132686,2640
1777572132688,2555
1777572132690,2473
1777572132692,2401
1777572132694,2335
1777572132696,2277
1777572132698,2229
1777572132681,2185
1777572132683,2145
1777572132685,2118
1777572132687,2110
1777572132689,2105
1777572132691,2101
1777572132693,2084
1777572132695,2063
1777572132697,2075
1777572132699,2096
1777572132734,2107
1777572132736,2108
1777572132738,2104
1777572132740,2106
1777572132742,2099
1777572132744,2102
1777572132746,2059
1777572132748,2094
1777572132750,2083
1777572132752,2081
1777572132734,2078
1777572132736,2066
1777572132738,2069
1777572132740,2064
1777572132742,2060
1777572132744,2074
1777572132746,2088
1777572132748,2091
1777572132750,2092
1777572132752,2091
1777572132770,2091
1777572132772,2089
1777572132774,2084
1777572132776,2076
1777572132778,2064
1777572132780,2073
1777572132782,2087
1777572132784,2090
1777572132786,2077
1777572132788,2086
1777572132770,2101
1777572132772,2102
1777572132774,2106
1777572132776,2123
1777572132778,2136
1777572132780,2142
1777572132782,2146
1777572132784,2141
1777572132786,2140
1777572132788,2139
1777572132829,2137
1777572132831,2139
1777572132833,2152
1777572132835,2160
1777572132837,2173
1777572132839,2184
1777572132841,2186
1777572132843,2187
1777572132845,2189
1777572132847,2188
1777572132829,2182
1777572132831,2157
1777572132833,2190
1777572132835,2201
1777572132837,2203
1777572132839,2205
1777572132841,2206
1777572132843,2219
1777572132845,2222
1777572132847,2218
1777572132879,2224
1777572132881,2238
1777572132883,2252
1777572132885,2272
1777572132887,2287
1777572132889,2303
1777572132891,2315
1777572132893,2325
1777572132895,2332
1777572132897,2339
1777572132879,2348
1777572132881,2355
1777572132883,2362
1777572132885,2360
1777572132887,2373
1777572132889,2392
1777572132891,2414
1777572132893,2426
1777572132895,2428
1777572132897,2434
1777572132879,2435
1777572132881,2432
1777572132883,2441
1777572132885,2445
1777572132887,2448
1777572132889,2455
1777572132891,2458
1777572132893,2456
1777572132895,2444
1777572132897,2443
1777572132958,2456
1777572132960,2472
1777572132962,2478
1777572132964,2484
1777572132966,2474
1777572132968,2475
1777572132970,2439
1777572132972,2462
1777572132974,2450
1777572132976,2430
1777572132958,2409
1777572132960,2384
1777572132962,2363
1777572132964,2349
1777572132966,2337
1777572132968,2321
1777572132970,2311
1777572132972,2293
1777572132974,2268
1777572132976,2250
1777572132958,2243
1777572132960,2231
1777572132962,2219
1777572132964,2215
1777572132966,2215
1777572132968,2222
1777572132970,2223
1777572132972,2217
1777572132974,2203
1777572132976,2201
1777572132958,2195
1777572132960,2185
1777572132962,2175
1777572132964,2176
1777572132966,2190
1777572132968,2198
1777572132970,2203
1777572132972,2204
1777572132974,2202
1777572132976,2201
1777572132995,2197
1777572132997,2188
1777572132999,2189
1777572133001,2192
1777572133003,2179
1777572133005,2163
1777572133007,2157
1777572133009,2179
1777572133011,2196
1777572133013,2197
1777572132995,2201
1777572132997,2177
1777572132999,2206
1777572133001,2225
1777572133003,2218
1777572133005,2212
1777572133007,2207
1777572133009,2206
1777572133011,2205
1777572133013,2203
1777572133053,2200
1777572133055,2191
1777572133057,2189
1777572133059,2201
1777572133061,2202
1777572133063,2211
1777572133065,2220
1777572133067,2229
1777572133069,2233
1777572133071,2234
1777572133053,2235
1777572133055,2221
1777572133057,2210
1777572133059,2219
1777572133061,2243
1777572133063,2277
1777572133065,2298
1777572133067,2301
1777572133069,2299
1777572133071,2291
1777572133053,2292
1777572133055,2292
1777572133057,2297
1777572133059,2296
1777572133061,2307
1777572133063,2311
1777572133065,2311
1777572133067,2314
1777572133069,2314
1777572133071,2311
1777572133086,2313
1777572133088,2323
1777572133090,2329
1777572133092,2330
1777572133094,2326
1777572133096,2333
1777572133098,2306
1777572133100,2339
1777572133102,2333
1777572133104,2331
1777572133086,2328
1777572133088,2329
1777572133090,2330
1777572133092,2335
1777572133094,2342
1777572133096,2348
1777572133098,2357
1777572133100,2362
1777572133102,2371
1777572133104,2380
1777572133130,2389
1777572133132,2394
1777572133134,2402
1777572133136,2407
1777572133138,2424
1777572133140,2432
1777572133142,2437
1777572133144,2433
1777572133146,2430
1777572133148,2440
1777572133130,2455
1777572133132,2446
1777572133134,2448
1777572133136,2450
1777572133138,2452
1777572133140,2463
1777572133142,2470
1777572133144,2485
1777572133146,2497
1777572133148,2496
1777572133183,2488
1777572133185,2476
1777572133187,2472
1777572133189,2473
1777572133191,2474
1777572133193,2484
1777572133195,2497
1777572133197,2506
1777572133199,2507
1777572133201,2498
1777572133183,2487
1777572133185,2456
1777572133187,2480
1777572133189,2475
1777572133191,2472
1777572133193,2466
1777572133195,2469
1777572133197,2461
1777572133199,2451
1777572133201,2442
1777572133220,2442
1777572133222,2447
1777572133224,2457
1777572133226,2462
1777572133228,2468
1777572133230,2474
1777572133232,2477
1777572133234,2481
1777572133236,2480
1777572133238,2477
1777572133220,2474
1777572133222,2468
1777572133224,2459
1777572133226,2450
1777572133228,2456
1777572133230,2484
1777572133232,2489
1777572133234,2486
1777572133236,2473
1777572133238,2472
1777572133220,2468
1777572133222,2475
1777572133224,2492
1777572133226,2505
1777572133228,2512
1777572133230,2522
1777572133232,2523
1777572133234,2516
1777572133236,2509
1777572133238,2514
1777572133278,2533
1777572133280,2540
1777572133282,2543
1777572133284,2546
1777572133286,2538
1777572133288,2540
1777572133290,2516
1777572133292,2549
1777572133294,2555
1777572133296,2555
1777572133278,2547
1777572133280,2540
1777572133282,2536
1777572133284,2535
1777572133286,2535
1777572133288,2539
1777572133290,2540
1777572133292,2540
1777572133294,2540
1777572133296,2538
1777572133310,2536
1777572133312,2534
1777572133314,2533
1777572133316,2532
1777572133318,2540
1777572133320,2551
1777572133322,2549
1777572133324,2547
1777572133326,2536
1777572133328,2538
1777572133310,2545
1777572133312,2540
1777572133314,2546
1777572133316,2556
1777572133318,2559
1777572133320,2555
1777572133322,2560
1777572133324,2574
1777572133326,2580
1777572133328,2585
1777572133356,2583
1777572133358,2576
1777572133360,2566
1777572133362,2567
1777572133364,2567
1777572133366,2559
1777572133368,2542
1777572133370,2544
1777572133372,2567
1777572133374,2575
1777572133356,2582
1777572133358,2560
1777572133360,2599
1777572133362,2609
1777572133364,2614
1777572133366,2616
1777572133368,2620
1777572133370,2618
1777572133372,2612
1777572133374,2602
1777572133357,2593
1777572133359,2584
1777572133361,2585
1777572133363,2583
1777572133365,2578
1777572133367,2579
1777572133369,2574
1777572133371,2562
1777572133373,2556
1777572133375,2556
1777572133406,2553
1777572133408,2546
1777572133410,2536
1777572133412,2522
1777572133414,2514
1777572133416,2553
1777572133418,2551
1777572133420,2542
1777572133422,2532
1777572133424,2512
1777572133406,2480
1777572133408,2477
1777572133410,2498
1777572133412,2515
1777572133414,2521
1777572133416,2526
1777572133418,2531
1777572133420,2532
1777572133422,2527
1777572133424,2525
1777572133445,2522
1777572133447,2513
1777572133449,2512
1777572133451,2517
1777572133453,2528
1777572133455,2540
1777572133457,2520
1777572133459,2554
1777572133461,2562
1777572133463,2566
1777572133445,2566
1777572133447,2558
1777572133449,2558
1777572133451,2564
1777572133453,2568
1777572133455,2568
1777572133457,2561
1777572133459,2565
1777572133461,2566
1777572133463,2573
1777572133503,2578
1777572133505,2579
1777572133507,2571
1777572133509,2573
1777572133511,2570
1777572133513,2572
1777572133515,2564
1777572133517,2554
1777572133519,2533
1777572133521,2526
1777572133503,2521
1777572133505,2501
1777572133507,2503
1777572133509,2516
1777572133511,2518
1777572133513,2512
1777572133515,2510
1777572133517,2507
1777572133519,2507
1777572133521,2497
1777572133537,2491
1777572133539,2483
1777572133541,2477
1777572133543,2474
1777572133545,2469
1777572133547,2471
1777572133549,2469
1777572133551,2462
1777572133553,2458
1777572133555,2447
1777572133537,2443
1777572133539,2417
1777572133541,2456
1777572133543,2452
1777572133545,2443
1777572133547,2447
1777572133549,2456
1777572133551,2459
1777572133553,2459
1777572133555,2458
1777572133537,2458
1777572133539,2454
1777572133541,2456
1777572133543,2455
1777572133545,2456
1777572133547,2460
1777572133549,2463
1777572133551,2460
1777572133553,2456
1777572133555,2445
1777572133581,2430
1777572133583,2425
1777572133585,2437
1777572133587,2443
1777572133589,2447
1777572133591,2487
1777572133593,2492
1777572133595,2497
1777572133597,2495
1777572133599,2492
1777572133582,2487
1777572133584,2491
1777572133586,2492
1777572133588,2502
1777572133590,2515
1777572133592,2534
1777572133594,2558
1777572133596,2590
1777572133598,2634
1777572133600,2689
1777572133630,2765
1777572133632,2849
1777572133634,2930
1777572133636,2998
1777572133638,3060
1777572133640,3105
1777572133642,3085
1777572133644,3099
1777572133646,3061
1777572133648,3015
1777572133630,2959
1777572133632,2878
1777572133634,2780
1777572133636,2685
1777572133638,2602
1777572133640,2524
1777572133642,2444
1777572133644,2374
1777572133646,2317
1777572133648,2277
1777572133670,2257
1777572133672,2247
1777572133674,2235
1777572133676,2244
1777572133678,2240
1777572133680,2239
1777572133682,2249
1777572133684,2265
1777572133686,2273
1777572133688,2293
1777572133671,2314
1777572133673,2310
1777572133675,2301
1777572133677,2298
1777572133679,2294
1777572133681,2291
1777572133683,2297
1777572133685,2289
1777572133687,2285
1777572133689,2292
1777572133726,2302
1777572133728,2313
1777572133730,2325
1777572133732,2329
1777572133734,2321
1777572133736,2314
1777572133738,2318
1777572133740,2337
1777572133742,2347
1777572133744,2342
1777572133726,2333
1777572133728,2308
1777572133730,2342
1777572133732,2340
1777572133734,2333
1777572133736,2331
1777572133738,2328
1777572133740,2327
1777572133742,2330
1777572133744,2332
1777572133726,2329
1777572133728,2332
1777572133730,2332
1777572133732,2331
1777572133734,2330
1777572133736,2334
1777572133738,2335
1777572133740,2336
1777572133742,2333
1777572133744,2325
1777572133775,2323
1777572133777,2328
1777572133779,2326
1777572133781,2312
1777572133783,2299
1777572133785,2331
1777572133787,2332
1777572133789,2332
1777572133791,2346
1777572133793,2357
1777572133775,2360
1777572133777,2352
1777572133779,2349
1777572133781,2348
1777572133783,2346
1777572133785,2348
1777572133787,2350
1777572133789,2363
1777572133791,2371
1777572133793,2377
1777572133805,2378
1777572133807,2379
1777572133809,2379
1777572133811,2384
1777572133813,2406
1777572133815,2395
1777572133817,2372
1777572133819,2410
1777572133821,2413
1777572133823,2416
1777572133806,2414
1777572133808,2423
1777572133810,2431
1777572133812,2443
1777572133814,2455
1777572133816,2466
1777572133818,2478
1777572133820,2478
1777572133822,2487
1777572133824,2487
1777572133854,2481
1777572133856,2476
1777572133858,2491
1777572133860,2504
1777572133862,2508
1777572133864,2518
1777572133866,2517
1777572133868,2503
1777572133870,2477
1777572133872,2468
1777572133854,2476
1777572133856,2466
1777572133858,2448
1777572133860,2439
1777572133862,2427
1777572133864,2429
1777572133866,2424
1777572133868,2412
1777572133870,2408
1777572133872,2393
1777572133895,2369
1777572133897,2344
1777572133899,2328
1777572133901,2312
1777572133903,2295
1777572133905,2282
1777572133907,2264
1777572133909,2233
1777572133911,2201
1777572133913,2175
1777572133895,2166
1777572133897,2131
1777572133899,2162
1777572133901,2153
1777572133903,2140
1777572133905,2132
1777572133907,2121
1777572133909,2104
1777572133911,2088
1777572133913,2073
1777572133896,2056
1777572133898,2046
1777572133900,2034
1777572133902,2024
1777572133904,2014
1777572133906,2012
1777572133908,2007
1777572133910,2001
1777572133912,1989
1777572133914,1988
1777572133951,1996
1777572133953,2000
1777572133955,1996
1777572133957,1994
1777572133959,1992
1777572133961,2029
1777572133963,2023
1777572133965,2008
1777572133967,1991
1777572133969,1979
1777572133951,1977
1777572133953,1968
1777572133955,1962
1777572133957,1961
1777572133959,1960
1777572133961,1962
1777572133963,1960
1777572133965,1964
1777572133967,1962
1777572133969,1960
1777572134001,1951
1777572134003,1945
1777572134005,1931
1777572134007,1933
1777572134009,1938
1777572134011,1938
1777572134013,1918
1777572134015,1969
1777572134017,1980
1777572134019,1983
1777572134001,1979
1777572134003,1976
1777572134005,1979
1777572134007,1986
1777572134009,1992
1777572134011,1994
1777572134013,2002
1777572134015,2004
1777572134017,1999
1777572134019,1994
1777572134034,1981
1777572134036,1965
1777572134038,1964
1777572134040,1968
1777572134042,1972
1777572134044,1974
1777572134046,1967
1777572134048,1957
1777572134050,1936
1777572134052,1931
1777572134034,1939
1777572134036,1923
1777572134038,1912
1777572134040,1911
1777572134042,1909
1777572134044,1917
1777572134046,1904
1777572134048,1877
1777572134050,1866
1777572134052,1857
1777572134084,1851
1777572134086,1862
1777572134088,1866
1777572134090,1870
1777572134092,1877
1777572134094,1880
1777572134096,1871
1777572134098,1865
1777572134100,1853
1777572134102,1837
1777572134084,1829
1777572134086,1802
1777572134088,1834
1777572134090,1829
1777572134092,1835
1777572134094,1836
1777572134096,1833
1777572134098,1833
1777572134100,1831
1777572134102,1822
1777572134084,1818
1777572134086,1811
1777572134088,1807
1777572134090,1805
1777572134092,1803
1777572134094,1803
1777572134096,1798
1777572134098,1805
1777572134100,1809
1777572134102,1815
1777572134125,1817
1777572134127,1814
1777572134129,1802
1777572134131,1794
1777572134133,1788
1777572134135,1824
1777572134137,1822
1777572134139,1820
1777572134141,1815
1777572134143,1801
1777572134125,1786
1777572134127,1780
1777572134129,1784
1777572134131,1791
1777572134133,1798
1777572134135,1796
1777572134137,1801
1777572134139,1794
1777572134141,1786
1777572134143,1782
1777572134170,1784
1777572134172,1799
1777572134174,1799
1777572134176,1801
1777572134178,1802
1777572134180,1819
1777572134182,1808
1777572134184,1849
1777572134186,1849
1777572134188,1848
1777572134170,1851
1777572134172,1849
1777572134174,1852
1777572134176,1870
1777572134178,1879
1777572134180,1891
1777572134182,1902
1777572134184,1920
1777572134186,1930
1777572134188,1937
1777572134210,1945
1777572134212,1945
1777572134214,1947
1777572134216,1948
1777572134218,1949
1777572134220,1955
1777572134222,1959
1777572134224,1962
1777572134226,1964
1777572134228,1975
1777572134210,1994
1777572134212,1993
1777572134214,1994
1777572134216,1996
1777572134218,1999
1777572134220,2011
1777572134222,2014
1777572134224,2014
1777572134226,2011
1777572134228,2010
1777572134266,2001
1777572134268,1994
1777572134270,1984
1777572134272,1992
1777572134274,2001
1777572134276,2010
1777572134278,2011
1777572134280,2011
1777572134282,2017
1777572134284,2017
1777572134266,2017
1777572134268,1995
1777572134270,2034
1777572134272,2040
1777572134274,2041
1777572134276,2037
1777572134278,2027
1777572134280,2036
1777572134282,2059
1777572134284,2063
1777572134266,2063
1777572134268,2063
1777572134270,2061
1777572134272,2055
1777572134274,2056
1777572134276,2060
1777572134278,2056
1777572134280,2070
1777572134282,2077
1777572134284,2077
1777572134301,2073
1777572134303,2061
1777572134305,2049
1777572134307,2045
1777572134309,2042
1777572134311,2072
1777572134313,2073
1777572134315,2079
1777572134317,2079
1777572134319,2073
1777572134301,2060
1777572134303,2058
1777572134305,2066
1777572134307,2078
1777572134309,2089
1777572134311,2094
1777572134313,2105
1777572134315,2107
1777572134317,2109
1777572134319,2110
1777572134345,2111
1777572134347,2110
1777572134349,2112
1777572134351,2121
1777572134353,2128
1777572134355,2137
1777572134357,2124
1777572134359,2167
1777572134361,2170
1777572134363,2172
1777572134345,2179
1777572134347,2176
1777572134349,2166
1777572134351,2173
1777572134353,2199
1777572134355,2230
1777572134357,2236
1777572134359,2235
1777572134361,2236
1777572134363,2234
1777572134395,2227
1777572134397,2236
1777572134399,2252
1777572134401,2267
1777572134403,2270
1777572134405,2265
1777572134407,2261
1777572134409,2251
1777572134411,2231
1777572134413,2230
1777572134395,2241
1777572134397,2243
1777572134399,2245
1777572134401,2241
1777572134403,2246
1777572134405,2247
1777572134407,2246
1777572134409,2240
1777572134411,2238
1777572134413,2235
1777572134436,2231
1777572134438,2225
1777572134440,2219
1777572134442,2213
1777572134444,2210
1777572134446,2214
1777572134448,2203
1777572134450,2204
1777572134452,2201
1777572134454,2186
1777572134436,2172
1777572134438,2151
1777572134440,2194
1777572134442,2209
1777572134444,2217
1777572134446,2230
1777572134448,2218
1777572134450,2200
1777572134452,2203
1777572134454,2216
1777572134436,2233
1777572134438,2238
1777572134440,2246
1777572134442,2251
1777572134444,2256
1777572134446,2262
1777572134448,2269
1777572134450,2278
1777572134452,2278
1777572134454,2272
1777572134491,2268
1777572134493,2261
1777572134495,2256
1777572134497,2252
1777572134499,2246
1777572134501,2281
1777572134503,2268
1777572134505,2247
1777572134507,2234
1777572134509,2245
1777572134491,2255
1777572134493,2266
1777572134495,2279
1777572134497,2297
1777572134499,2311
1777572134501,2324
1777572134503,2336
1777572134505,2367
1777572134507,2413
1777572134509,2465
1777572134526,2521
1777572134528,2596
1777572134530,2689
1777572134532,2783
1777572134534,2861
1777572134536,2931
1777572134538,2950
1777572134540,2992
1777572134542,2979
1777572134544,2943
1777572134526,2897
1777572134528,2848
1777572134530,2799
1777572134532,2742
1777572134534,2681
1777572134536,2623
1777572134538,2556
1777572134540,2492
1777572134542,2426
1777572134544,2358
1777572134570,2303
1777572134572,2290
1777572134574,2281
1777572134576,2268
1777572134578,2264
1777572134580,2265
1777572134582,2258
1777572134584,2246
1777572134586,2229
1777572134588,2231
1777572134570,2244
1777572134572,2235
1777572134574,2232
1777572134576,2246
1777572134578,2274
1777572134580,2294
1777572134582,2308
1777572134584,2315
1777572134586,2318
1777572134588,2316
1777572134620,2314
1777572134622,2320
1777572134624,2329
1777572134626,2340
1777572134628,2349
1777572134630,2362
1777572134632,2368
1777572134634,2377
1777572134636,2377
1777572134638,2366
1777572134620,2362
1777572134622,2348
1777572134624,2397
1777572134626,2411
1777572134628,2410
1777572134630,2412
1777572134632,2416
1777572134634,2420
1777572134636,2426
1777572134638,2428
1777572134620,2428
1777572134622,2433
1777572134624,2439
1777572134626,2439
1777572134628,2441
1777572134630,2450
1777572134632,2460
1777572134634,2468
1777572134636,2473
1777572134638,2473
1777572134660,2474
1777572134662,2471
1777572134664,2476
1777572134666,2469
1777572134668,2459
1777572134670,2490
1777572134672,2493
1777572134674,2493
1777572134676,2501
1777572134678,2519
1777572134660,2543
1777572134662,2556
1777572134664,2566
1777572134666,2567
1777572134668,2568
1777572134670,2586
1777572134672,2599
1777572134674,2608
1777572134676,2606
1777572134678,2604
1777572134716,2611
1777572134718,2619
1777572134720,2634
1777572134722,2650
1777572134724,2649
1777572134726,2658
1777572134728,2643
1777572134730,2687
1777572134732,2697
1777572134734,2698
1777572134716,2696
1777572134718,2694
1777572134720,2705
1777572134722,2712
1777572134724,2724
1777572134726,2730
1777572134728,2740
1777572134730,2754
1777572134732,2774
1777572134734,2789
1777572134750,2793
1777572134752,2799
1777572134754,2812
1777572134756,2827
1777572134758,2837
1777572134760,2844
1777572134762,2842
1777572134764,2846
1777572134766,2837
1777572134768,2831
1777572134750,2832
1777572134752,2818
1777572134754,2830
1777572134756,2862
1777572134758,2867
1777572134760,2866
1777572134762,2876
1777572134764,2887
1777572134766,2889
1777572134768,2881
1777572134795,2871
1777572134797,2861
1777572134799,2856
1777572134801,2852
1777572134803,2843
1777572134805,2834
1777572134807,2827
1777572134809,2820
1777572134811,2811
1777572134813,2791
1777572134795,2769
1777572134797,2731
1777572134799,2764
1777572134801,2764
1777572134803,2762
1777572134805,2762
1777572134807,2753
1777572134809,2747
1777572134811,2743
1777572134813,2736
1777572134796,2731
1777572134798,2725
1777572134800,2716
1777572134802,2704
1777572134804,2675
1777572134806,2691
1777572134808,2713
1777572134810,2728
1777572134812,2734
1777572134814,2736
1777572134842,2736
1777572134844,2729
1777572134846,2736
1777572134848,2733
1777572134850,2722
1777572134852,2759
1777572134854,2761
1777572134856,2763
1777572134858,2775
1777572134860,2771
1777572134842,2769
1777572134844,2768
1777572134846,2778
1777572134848,2792
1777572134850,2802
1777572134852,2815
1777572134854,2822
1777572134856,2827
1777572134858,2828
1777572134860,2824
1777572134885,2818
1777572134887,2827
1777572134889,2829
1777572134891,2838
1777572134893,2843
1777572134895,2855
1777572134897,2839
1777572134899,2875
1777572134901,2869
1777572134903,2869
1777572134885,2874
1777572134887,2877
1777572134889,2890
1777572134891,2902
1777572134893,2909
1777572134895,2909
1777572134897,2907
1777572134899,2898
1777572134901,2890
1777572134903,2889
1777572134938,2904
1777572134940,2923
1777572134942,2942
1777572134944,2953
1777572134946,2955
1777572134948,2955
1777572134950,2947
1777572134952,2949
1777572134954,2933
1777572134956,2934
1777572134938,2947
1777572134940,2940
1777572134942,2948
1777572134944,2965
1777572134946,2971
1777572134948,2993
1777572134950,3003
1777572134952,3006
1777572134954,3004
1777572134956,3000
1777572134938,3002
1777572134940,3003
1777572134942,3003
1777572134944,3004
1777572134946,3005
1777572134948,3010
1777572134950,3014
1777572134952,3014
1777572134954,3015
1777572134956,3004
1777572134975,2999
1777572134977,2957
1777572134979,3001
1777572134981,3011
1777572134983,3014
1777572134985,3019
1777572134987,3021
1777572134989,3022
1777572134991,3020
1777572134993,3019
1777572134975,3017
1777572134977,3016
1777572134979,3018
1777572134981,3014
1777572134983,3006
1777572134985,3014
1777572134987,3012
1777572134989,3012
1777572134991,3016
1777572134993,3016
1777572135020,3011
1777572135022,3006
1777572135024,3015
1777572135026,3009
1777572135028,3016
1777572135030,3036
1777572135032,3038
1777572135034,3037
1777572135036,3035
1777572135038,3031
1777572135020,3027
1777572135022,3025
1777572135024,3022
1777572135026,3020
1777572135028,3031
1777572135030,3040
1777572135032,3046
1777572135034,3046
1777572135036,3042
1777572135038,3030
1777572135066,3023
1777572135068,3018
1777572135070,3018
1777572135072,3033
1777572135074,3034
1777572135076,3036
1777572135078,3012
1777572135080,3051
1777572135082,3046
1777572135084,3036
1777572135066,3026
1777572135068,3016
1777572135070,3012
1777572135072,3021
1777572135074,3030
1777572135076,3034
1777572135078,3035
1777572135080,3033
1777572135082,3023
1777572135084,3019
1777572135110,3016
1777572135112,3003
1777572135114,2999
1777572135116,3008
1777572135118,3019
1777572135120,3024
1777572135122,3020
1777572135124,3018
1777572135126,3007
1777572135128,3015
1777572135110,3038
1777572135112,3041
1777572135114,3040
1777572135116,3041
1777572135118,3033
1777572135120,3021
1777572135122,3017
1777572135124,3026
1777572135126,3035
1777572135128,3038
1777572135110,3036
1777572135112,3039
1777572135114,3045
1777572135116,3049
1777572135118,3045
1777572135120,3047
1777572135122,3043
1777572135124,3034
1777572135126,3022
1777572135128,3008
1777572135162,3005
1777572135164,2987
1777572135166,3034
1777572135168,3048
1777572135170,3050
1777572135172,3048
1777572135174,3035
1777572135176,3020
1777572135178,3016
1777572135180,3007
1777572135162,3003
1777572135164,3007
1777572135166,3017
1777572135168,3020
1777572135170,3020
1777572135172,3036
1777572135174,3042
1777572135176,3043
1777572135178,3034
1777572135180,3019
1777572135200,3008
1777572135202,3001
1777572135204,2998
1777572135206,2993
1777572135208,3008
1777572135210,3038
1777572135212,3038
1777572135214,3038
1777572135216,3036
1777572135218,3033
1777572135200,3025
1777572135202,3021
1777572135204,3021
1777572135206,3026
1777572135208,3035
1777572135210,3044
1777572135212,3043
1777572135214,3039
1777572135216,3037
1777572135218,3034
1777572135245,3031
1777572135247,3023
1777572135249,3022
1777572135251,3018
1777572135253,3006
1777572135255,3002
1777572135257,2980
1777572135259,3011
1777572135261,3010
1777572135263,3000
1777572135246,2997
1777572135248,2989
1777572135250,2985
1777572135252,2985
1777572135254,2978
1777572135256,2980
1777572135258,2984
1777572135260,2984
1777572135262,2972
1777572135264,2961
1777572135290,2957
1777572135292,2956
1777572135294,2958
1777572135296,2973
1777572135298,2985
1777572135300,2988
1777572135302,2990
1777572135304,2988
1777572135306,2978
1777572135308,2972
1777572135290,2985
1777572135292,2968
1777572135294,2960
1777572135296,2946
1777572135298,2938
1777572135300,2940
1777572135302,2951
1777572135304,2955
1777572135306,2956
1777572135308,2951
1777572135290,2935
1777572135292,2914
1777572135294,2904
1777572135296,2917
1777572135298,2919
1777572135300,2924
1777572135302,2921
1777572135304,2911
1777572135306,2895
1777572135308,2868
1777572135336,2852
1777572135338,2817
1777572135340,2846
1777572135342,2846
1777572135344,2834
1777572135346,2811
1777572135348,2804
1777572135350,2816
1777572135352,2825
1777572135354,2820
1777572135386,2813
1777572135388,2806
1777572135390,2805
1777572135392,2807
1777572135394,2813
1777572135396,2815
1777572135398,2811
1777572135400,2807
1777572135402,2797
1777572135404,2786
1777572135386,2773
1777572135388,2759
1777572135390,2748
1777572135392,2736
1777572135394,2754
1777572135396,2767
1777572135398,2774
1777572135400,2784
1777572135402,2781
1777572135404,2774
1777572135386,2767
1777572135388,2768
1777572135390,2763
1777572135392,2766
1777572135394,2766
1777572135396,2765
1777572135398,2762
1777572135400,2760
1777572135402,2757
1777572135404,2747
1777572135425,2735
1777572135427,2718
1777572135429,2707
1777572135431,2693
1777572135433,2679
1777572135435,2680
1777572135437,2666
1777572135439,2719
1777572135441,2730
1777572135443,2732
1777572135425,2743
1777572135427,2749
1777572135429,2771
1777572135431,2807
1777572135433,2837
1777572135435,2873
1777572135437,2917
1777572135439,2973
1777572135441,3040
1777572135443,3113
1777572135484,3194
1777572135486,3280
1777572135488,3360
1777572135490,3417
1777572135492,3431
1777572135494,3407
1777572135496,3369
1777572135498,3313
1777572135500,3230
1777572135502,3148
1777572135484,3066
1777572135486,2969
1777572135488,2882
1777572135490,2792
1777572135492,2704
1777572135494,2626
1777572135496,2545
1777572135498,2469
1777572135500,2414
1777572135502,2413
1777572135484,2434
1777572135486,2451
1777572135488,2459
1777572135490,2458
1777572135492,2470
1777572135494,2490
1777572135496,2505
1777572135498,2516
1777572135500,2522
1777572135502,2509
1777572135534,2495
1777572135536,2468
1777572135538,2503
1777572135540,2507
1777572135542,2505
1777572135544,2505
1777572135546,2494
1777572135548,2491
1777572135550,2491
1777572135552,2487
1777572135561,2483
1777572135563,2484
1777572135565,2485
1777572135567,2489
1777572135569,2495
1777572135571,2502
1777572135573,2501
1777572135575,2493
1777572135577,2487
1777572135579,2477
1777572135561,2477
1777572135563,2467
1777572135565,2451
1777572135567,2442
1777572135569,2465
1777572135571,2471
1777572135573,2474
1777572135575,2488
1777572135577,2490
1777572135579,2490
1777572135561,2489
1777572135563,2487
1777572135565,2476
1777572135567,2472
1777572135569,2459
1777572135571,2438
1777572135573,2427
1777572135575,2445
1777572135577,2458
1777572135579,2460
1777572135610,2461
1777572135612,2470
1777572135614,2482
1777572135616,2492
1777572135618,2485
1777572135620,2487
1777572135622,2454
1777572135624,2483
1777572135626,2479
1777572135628,2474
1777572135610,2463
1777572135612,2462
1777572135614,2472
1777572135616,2474
1777572135618,2471
1777572135620,2474
1777572135622,2478
1777572135624,2483
1777572135626,2484
1777572135628,2479
1777572135650,2473
1777572135652,2474
1777572135654,2487
1777572135656,2498
1777572135658,2499
1777572135660,2507
1777572135662,2518
1777572135664,2524
1777572135666,2518
1777572135668,2525
1777572135650,2546
1777572135652,2561
1777572135654,2572
1777572135656,2581
1777572135658,2578
1777572135660,2568
1777572135662,2562
1777572135664,2566
1777572135666,2582
1777572135668,2587
1777572135706,2587
1777572135708,2586
1777572135710,2586
1777572135712,2575
1777572135714,2566
1777572135716,2560
1777572135718,2565
1777572135720,2559
1777572135722,2552
1777572135724,2541
1777572135706,2537
1777572135708,2516
1777572135710,2541
1777572135712,2526
1777572135714,2508
1777572135716,2488
1777572135718,2461
1777572135720,2444
1777572135722,2419
1777572135724,2397
1777572135741,2379
1777572135743,2371
1777572135745,2355
1777572135747,2336
1777572135749,2312
1777572135751,2304
1777572135753,2293
1777572135755,2273
1777572135757,2253
1777572135759,2242
1777572135741,2234
1777572135743,2219
1777572135745,2202
1777572135747,2183
1777572135749,2180
1777572135751,2183
1777572135753,2174
1777572135755,2152
1777572135757,2132
1777572135759,2121
1777572135741,2120
1777572135743,2107
1777572135745,2093
1777572135747,2097
1777572135749,2105
1777572135751,2120
1777572135753,2135
1777572135755,2140
1777572135757,2139
1777572135759,2137
1777572135785,2135
1777572135787,2136
1777572135789,2138
1777572135791,2147
1777572135793,2135
1777572135795,2136
1777572135797,2104
1777572135799,2134
1777572135801,2134
1777572135803,2136
1777572135785,2141
1777572135787,2151
1777572135789,2163
1777572135791,2166
1777572135793,2162
1777572135795,2169
1777572135797,2171
1777572135799,2170
1777572135801,2171
1777572135803,2169
1777572135834,2168
1777572135836,2164
1777572135838,2159
1777572135840,2153
1777572135842,2150
1777572135844,2158
1777572135846,2154
1777572135848,2139
1777572135850,2117
1777572135852,2119
1777572135834,2134
1777572135836,2143
1777572135838,2146
1777572135840,2139
1777572135842,2134
1777572135844,2155
1777572135846,2171
1777572135848,2172
1777572135850,2173
1777572135852,2171
1777572135875,2179
1777572135877,2184
1777572135879,2188
1777572135881,2196
1777572135883,2205
1777572135885,2207
1777572135887,2208
1777572135889,2203
1777572135891,2199
1777572135893,2185
1777572135875,2185
1777572135877,2170
1777572135879,2210
1777572135881,2219
1777572135883,2226
1777572135885,2231
1777572135887,2220
1777572135889,2222
1777572135891,2229
1777572135893,2232
1777572135929,2234
1777572135931,2237
1777572135933,2243
1777572135935,2252
1777572135937,2256
1777572135939,2266
1777572135941,2269
1777572135943,2267
1777572135945,2263
1777572135947,2254
1777572135929,2257
1777572135931,2265
1777572135933,2274
1777572135935,2277
1777572135937,2286
1777572135939,2299
1777572135941,2299
1777572135943,2295
1777572135945,2285
1777572135947,2272
1777572135929,2264
1777572135931,2256
1777572135933,2255
1777572135935,2263
1777572135937,2275
1777572135939,2293
1777572135941,2299
1777572135943,2302
1777572135945,2309
1777572135947,2307
1777572135965,2312
1777572135967,2316
1777572135969,2317
1777572135971,2323
1777572135973,2316
1777572135975,2323
1777572135977,2294
1777572135979,2326
1777572135981,2328
1777572135983,2325
1777572135966,2321
1777572135968,2326
1777572135970,2329
1777572135972,2329
1777572135974,2327
1777572135976,2340
1777572135978,2347
1777572135980,2346
1777572135982,2338
1777572135984,2333
1777572136010,2329
1777572136012,2331
1777572136014,2344
1777572136016,2346
1777572136018,2350
1777572136020,2352
1777572136022,2354
1777572136024,2345
1777572136026,2327
1777572136028,2319
1777572136010,2326
1777572136012,2316
1777572136014,2322
1777572136016,2332
1777572136018,2331
1777572136020,2327
1777572136022,2324
1777572136024,2338
1777572136026,2344
1777572136028,2344
1777572136058,2344
1777572136060,2345
1777572136062,2342
1777572136064,2346
1777572136066,2346
1777572136068,2347
1777572136070,2346
1777572136072,2345
1777572136074,2337
1777572136076,2319
1777572136058,2315
1777572136060,2296
1777572136062,2334
1777572136064,2332
1777572136066,2331
1777572136068,2327
1777572136070,2331
1777572136072,2332
1777572136074,2329
1777572136076,2317
1777572136100,2307
1777572136102,2309
1777572136104,2326
1777572136106,2351
1777572136108,2361
1777572136110,2369
1777572136112,2367
1777572136114,2364
1777572136116,2365
1777572136118,2364
1777572136100,2361
1777572136102,2358
1777572136104,2357
1777572136106,2349
1777572136108,2348
1777572136110,2366
1777572136112,2370
1777572136114,2371
1777572136116,2364
1777572136118,2356
1777572136100,2343
1777572136102,2328
1777572136104,2340
1777572136106,2359
1777572136108,2371
1777572136110,2380
1777572136112,2380
1777572136114,2378
1777572136116,2388
1777572136118,2395
1777572136154,2397
1777572136156,2404
1777572136158,2410
1777572136160,2410
1777572136162,2394
1777572136164,2397
1777572136166,2372
1777572136168,2414
1777572136170,2415
1777572136172,2406
1777572136154,2396
1777572136156,2408
1777572136158,2422
1777572136160,2427
1777572136162,2430
1777572136164,2432
1777572136166,2439
1777572136168,2442
1777572136170,2442
1777572136172,2434
1777572136190,2437
1777572136192,2442
1777572136194,2440
1777572136196,2445
1777572136198,2471
1777572136200,2499
1777572136202,2525
1777572136204,2541
1777572136206,2542
1777572136208,2552
1777572136190,2584
1777572136192,2594
1777572136194,2605
1777572136196,2617
1777572136198,2620
1777572136200,2623
1777572136202,2625
1777572136204,2634
1777572136206,2637
1777572136208,2641
1777572136236,2649
1777572136238,2656
1777572136240,2663
1777572136242,2676
1777572136244,2673
1777572136246,2676
1777572136248,2680
1777572136250,2684
1777572136252,2695
1777572136254,2698
1777572136237,2703
1777572136239,2684
1777572136241,2730
1777572136243,2742
1777572136245,2751
1777572136247,2756
1777572136249,2763
1777572136251,2763
1777572136253,2758
1777572136255,2747
1777572136237,2753
1777572136239,2760
1777572136241,2777
1777572136243,2779
1777572136245,2780
1777572136247,2794
1777572136249,2803
1777572136251,2811
1777572136253,2820
1777572136255,2825
1777572136281,2829
1777572136283,2827
1777572136285,2825
1777572136287,2810
1777572136289,2807
1777572136291,2861
1777572136293,2873
1777572136295,2872
1777572136297,2861
1777572136299,2849
1777572136281,2830
1777572136283,2821
1777572136285,2815
1777572136287,2820
1777572136289,2827
1777572136291,2837
1777572136293,2841
1777572136295,2842
1777572136297,2840
1777572136299,2837
1777572136328,2831
1777572136330,2829
1777572136332,2827
1777572136334,2818
1777572136336,2824
1777572136338,2806
1777572136340,2773
1777572136342,2811
1777572136344,2802
1777572136346,2795
1777572136328,2796
1777572136330,2795
1777572136332,2792
1777572136334,2780
1777572136336,2777
1777572136338,2776
1777572136340,2771
1777572136342,2774
1777572136344,2765
1777572136346,2759
1777572136378,2763
1777572136380,2763
1777572136382,2757
1777572136384,2764
1777572136386,2767
1777572136388,2771
1777572136390,2767
1777572136392,2756
1777572136394,2728
1777572136396,2714
1777572136378,2731
1777572136380,2728
1777572136382,2727
1777572136384,2730
1777572136386,2740
1777572136388,2739
1777572136390,2747
1777572136392,2747
1777572136394,2744
1777572136396,2742
1777572136415,2742
1777572136417,2734
1777572136419,2734
1777572136421,2734
1777572136423,2732
1777572136425,2732
1777572136427,2732
1777572136429,2728
1777572136431,2712
1777572136433,2691
1777572136415,2688
1777572136417,2671
1777572136419,2706
1777572136421,2700
1777572136423,2685
1777572136425,2693
1777572136427,2710
1777572136429,2731
1777572136431,2745
1777572136433,2750
1777572136415,2762
1777572136417,2784
1777572136419,2819
1777572136421,2853
1777572136423,2888
1777572136425,2932
1777572136427,2983
1777572136429,3042
1777572136431,3107
1777572136433,3181
1777572136460,3265
1777572136462,3336
1777572136464,3397
1777572136466,3428
1777572136468,3423
1777572136470,3431
1777572136472,3383
1777572136474,3319
1777572136476,3228
1777572136478,3126
1777572136460,3023
1777572136462,2933
1777572136464,2849
1777572136466,2771
1777572136468,2695
1777572136470,2630
1777572136472,2576
1777572136474,2530
1777572136476,2499
1777572136478,2481
1777572136506,2474
1777572136508,2474
1777572136510,2475
1777572136512,2475
1777572136514,2492
1777572136516,2516
1777572136518,2514
1777572136520,2561
1777572136522,2554
1777572136524,2541
1777572136506,2544
1777572136508,2559
1777572136510,2571
1777572136512,2573
1777572136514,2570
1777572136516,2571
1777572136518,2577
1777572136520,2587
1777572136522,2586
1777572136524,2588
1777572136550,2588
1777572136552,2583
1777572136554,2570
1777572136556,2572
1777572136558,2573
1777572136560,2584
1777572136562,2585
1777572136564,2582
1777572136566,2568
1777572136568,2566
1777572136550,2584
1777572136552,2582
1777572136554,2580
1777572136556,2584
1777572136558,2586
1777572136560,2584
1777572136562,2588
1777572136564,2588
1777572136566,2586
1777572136568,2576
1777572136602,2567
1777572136604,2562
1777572136606,2561
1777572136608,2560
1777572136610,2566
1777572136612,2579
1777572136614,2587
1777572136616,2599
1777572136618,2604
1777572136620,2603
1777572136602,2606
1777572136604,2585
1777572136606,2621
1777572136608,2621
1777572136610,2617
1777572136612,2622
1777572136614,2615
1777572136616,2600
1777572136618,2589
1777572136620,2589
1777572136602,2592
1777572136604,2608
1777572136606,2626
1777572136608,2638
1777572136610,2646
1777572136612,2650
1777572136614,2652
1777572136616,2654
1777572136618,2651
1777572136620,2649
1777572136640,2648
1777572136642,2652
1777572136644,2667
1777572136646,2674
1777572136648,2675
1777572136650,2713
1777572136652,2715
1777572136654,2715
1777572136656,2714
1777572136658,2707
1777572136640,2709
1777572136642,2716
1777572136644,2727
1777572136646,2739
1777572136648,2742
1777572136650,2740
1777572136652,2730
1777572136654,2734
1777572136656,2743
1777572136658,2761
1777572136685,2778
1777572136687,2790
1777572136689,2790
1777572136691,2791
1777572136693,2786
1777572136695,2778
1777572136697,2757
1777572136699,2789
1777572136701,2774
1777572136703,2759
1777572136686,2747
1777572136688,2746
1777572136690,2744
1777572136692,2734
1777572136694,2718
1777572136696,2700
1777572136698,2688
1777572136700,2672
1777572136702,2641
1777572136704,2608
1777572136730,2587
1777572136732,2583
1777572136734,2579
1777572136736,2564
1777572136738,2540
1777572136740,2515
1777572136742,2492
1777572136744,2468
1777572136746,2438
1777572136748,2424
1777572136730,2424
1777572136732,2410
1777572136734,2396
1777572136736,2389
1777572136738,2379
1777572136740,2374
1777572136742,2353
1777572136744,2331
1777572136746,2317
1777572136748,2308
1777572136775,2298
1777572136777,2291
1777572136779,2286
1777572136781,2284
1777572136783,2277
1777572136785,2270
1777572136787,2261
1777572136789,2248
1777572136791,2233
1777572136793,2220
1777572136775,2218
1777572136777,2200
1777572136779,2235
1777572136781,2229
1777572136783,2222
1777572136785,2227
1777572136787,2221
1777572136789,2214
1777572136791,2203
1777572136793,2202
1777572136775,2201
1777572136777,2210
1777572136779,2211
1777572136781,2210
1777572136783,2226
1777572136785,2242
1777572136787,2244
1777572136789,2241
1777572136791,2234
1777572136793,2223
1777572136826,2217
1777572136828,2214
1777572136830,2205
1777572136832,2195
1777572136834,2180
1777572136836,2213
1777572136838,2205
1777572136840,2203
1777572136842,2198
1777572136844,2188
1777572136826,2186
1777572136828,2177
1777572136830,2170
1777572136832,2170
1777572136834,2171
1777572136836,2178
1777572136838,2175
1777572136840,2173
1777572136842,2171
1777572136844,2171
1777572136866,2175
1777572136868,2176
1777572136870,2167
1777572136872,2168
1777572136874,2169
1777572136876,2179
1777572136878,2167
1777572136880,2205
1777572136882,2207
1777572136884,2204
1777572136866,2202
1777572136868,2201
1777572136870,2194
1777572136872,2193
1777572136874,2188
1777572136876,2181
1777572136878,2183
1777572136880,2185
1777572136882,2182
1777572136884,2181
1777572136921,2187
1777572136923,2200
1777572136925,2218
1777572136927,2224
1777572136929,2222
1777572136931,2220
1777572136933,2214
1777572136935,2201
1777572136937,2182
1777572136939,2180
1777572136921,2193
1777572136923,2190
1777572136925,2187
1777572136927,2180
1777572136929,2168
1777572136931,2173
1777572136933,2172
1777572136935,2168
1777572136937,2157
1777572136939,2149
1777572136955,2137
1777572136957,2138
1777572136959,2152
1777572136961,2168
1777572136963,2169
1777572136965,2171
1777572136967,2172
1777572136969,2172
1777572136971,2169
1777572136973,2156
1777572136956,2155
1777572136958,2133
1777572136960,2169
1777572136962,2170
1777572136964,2177
1777572136966,2173
1777572136968,2161
1777572136970,2141
1777572136972,2125
1777572136974,2126
1777572136956,2137
1777572136958,2127
1777572136960,2133
1777572136962,2153
1777572136964,2167
1777572136966,2170
1777572136968,2158
1777572136970,2153
1777572136972,2154
1777572136974,2157
1777572137002,2152
1777572137004,2141
1777572137006,2134
1777572137008,2117
1777572137010,2100
1777572137012,2133
1777572137014,2131
1777572137016,2127
1777572137018,2120
1777572137020,2108
1777572137002,2105
1777572137004,2099
1777572137006,2098
1777572137008,2094
1777572137010,2088
1777572137012,2072
1777572137014,2064
1777572137016,2052
1777572137018,2045
1777572137020,2055
1777572137050,2060
1777572137052,2058
1777572137054,2052
1777572137056,2044
1777572137058,2034
1777572137060,2027
1777572137062,2005
1777572137064,2047
1777572137066,2059
1777572137068,2056
1777572137050,2055
1777572137052,2049
1777572137054,2055
1777572137056,2057
1777572137058,2045
1777572137060,2040
1777572137062,2029
1777572137064,2021
1777572137066,2012
1777572137068,2014
1777572137090,2024
1777572137092,2025
1777572137094,2028
1777572137096,2026
1777572137098,2018
1777572137100,2022
1777572137102,2021
1777572137104,2006
1777572137106,1991
1777572137108,2000
1777572137090,2021
1777572137092,2015
1777572137094,2010
1777572137096,2002
1777572137098,1992
1777572137100,1992
1777572137102,1984
1777572137104,1979
1777572137106,1970
1777572137108,1962
1777572137145,1948
1777572137147,1950
1777572137149,1940
1777572137151,1930
1777572137153,1932
1777572137155,1940
1777572137157,1942
1777572137159,1937
1777572137161,1929
1777572137163,1910
1777572137145,1899
1777572137147,1867
1777572137149,1887
1777572137151,1883
1777572137153,1888
1777572137155,1898
1777572137157,1896
1777572137159,1881
1777572137161,1865
1777572137163,1863
1777572137145,1867
1777572137147,1867
1777572137149,1865
1777572137151,1878
1777572137153,1884
1777572137155,1884
1777572137157,1879
1777572137159,1877
1777572137161,1868
1777572137163,1864
1777572137199,1860
1777572137201,1853
1777572137203,1843
1777572137205,1826
1777572137207,1801
1777572137209,1817
1777572137211,1811
1777572137213,1821
1777572137215,1826
1777572137217,1822
1777572137199,1820
1777572137201,1819
1777572137203,1818
1777572137205,1817
1777572137207,1816
1777572137209,1816
1777572137211,1814
1777572137213,1805
1777572137215,1803
1777572137217,1800
1777572137233,1795
1777572137235,1788
1777572137237,1788
1777572137239,1797
1777572137241,1797
1777572137243,1790
1777572137245,1755
1777572137247,1773
1777572137249,1770
1777572137251,1785
1777572137233,1788
1777572137235,1792
1777572137237,1802
1777572137239,1813
1777572137241,1813
1777572137243,1825
1777572137245,1825
1777572137247,1819
1777572137249,1814
1777572137251,1806
1777572137310,1804
1777572137312,1810
1777572137314,1817
1777572137316,1819
1777572137318,1809
1777572137320,1801
1777572137322,1796
1777572137324,1789
1777572137326,1783
1777572137328,1787
1777572137310,1806
1777572137312,1819
1777572137314,1838
1777572137316,1846
1777572137318,1851
1777572137320,1851
1777572137322,1851
1777572137324,1841
1777572137326,1836
1777572137328,1837
1777572137334,1837
1777572137336,1839
1777572137338,1849
1777572137340,1854
1777572137342,1860
1777572137344,1865
1777572137346,1863
1777572137348,1865
1777572137350,1854
1777572137352,1841
1777572137334,1848
1777572137336,1833
1777572137338,1879
1777572137340,1901
1777572137342,1915
1777572137344,1929
1777572137346,1931
1777572137348,1929
1777572137350,1921
1777572137352,1915
1777572137334,1911
1777572137336,1902
1777572137338,1900
1777572137340,1899
1777572137342,1895
1777572137344,1890
1777572137346,1899
1777572137348,1906
1777572137350,1917
1777572137352,1927
1777572137370,1932
1777572137372,1937
1777572137374,1935
1777572137376,1926
1777572137378,1909
1777572137380,1943
1777572137382,1941
1777572137384,1933
1777572137386,1926
1777572137388,1915
1777572137370,1914
1777572137372,1914
1777572137374,1915
1777572137376,1922
1777572137378,1925
1777572137380,1939
1777572137382,1948
1777572137384,1950
1777572137386,1947
1777572137388,1945
1777572137405,1943
1777572137407,1942
1777572137409,1946
1777572137411,1945
1777572137413,1931
1777572137415,1932
1777572137417,1909
1777572137419,1939
1777572137421,1932
1777572137423,1927
1777572137405,1923
1777572137407,1926
1777572137409,1922
1777572137411,1910
1777572137413,1890
1777572137415,1895
1777572137417,1897
1777572137419,1894
1777572137421,1892
1777572137423,1903
1777572137450,1920
1777572137452,1945
1777572137454,1950
1777572137456,1948
1777572137458,1938
1777572137460,1945
1777572137462,1947
1777572137464,1944
1777572137466,1925
1777572137468,1927
1777572137450,1958
1777572137452,1971
1777572137454,1975
1777572137456,1970
1777572137458,1964
1777572137460,1961
1777572137462,1960
1777572137464,1963
1777572137466,1972
1777572137468,1980
1777572137497,1988
1777572137499,2003
1777572137501,2032
1777572137503,2067
1777572137505,2102
1777572137507,2138
1777572137509,2186
1777572137511,2248
1777572137513,2322
1777572137515,2401
1777572137497,2486
1777572137499,2545
1777572137501,2651
1777572137503,2707
1777572137505,2726
1777572137507,2714
1777572137509,2684
1777572137511,2640
1777572137513,2589
1777572137515,2526
1777572137497,2450
1777572137499,2371
1777572137501,2294
1777572137503,2218
1777572137505,2145
1777572137507,2073
1777572137509,2012
1777572137511,1961
1777572137513,1922
1777572137515,1895
1777572137594,1874
1777572137596,1853
1777572137598,1840
1777572137600,1823
1777572137602,1804
1777572137604,1847
1777572137606,1856
1777572137608,1872
1777572137610,1888
1777572137612,1898
1777572137594,1912
1777572137596,1930
1777572137598,1941
1777572137600,1946
1777572137602,1933
1777572137604,1924
1777572137606,1916
1777572137608,1918
1777572137610,1935
1777572137612,1946
1777572137594,1952
1777572137596,1961
1777572137598,1962
1777572137600,1961
1777572137602,1949
1777572137604,1951
1777572137606,1948
1777572137608,1964
1777572137610,1960
1777572137612,1960
1777572137594,1967
1777572137596,1975
1777572137598,1981
1777572137600,1984
1777572137602,1989
1777572137604,1988
1777572137606,1982
1777572137608,1982
1777572137610,1984
1777572137612,1988
1777572137630,1991
1777572137632,1988
1777572137634,1986
1777572137636,1991
1777572137638,1994
1777572137640,2003
1777572137642,1999
1777572137644,1996
1777572137646,1984
1777572137648,1966
1777572137630,2028
1777572137632,2038
1777572137634,2038
1777572137636,2040
1777572137638,2030
1777572137640,2027
1777572137642,2024
1777572137644,2013
1777572137646,1999
1777572137648,1991
1777572137675,2004
1777572137677,2020
1777572137679,2032
1777572137681,2042
1777572137683,2043
1777572137685,2042
1777572137687,2052
1777572137689,2056
1777572137691,2057
1777572137693,2051
1777572137675,2054
1777572137677,2034
1777572137679,2090
1777572137681,2101
1777572137683,2109
1777572137685,2120
1777572137687,2122
1777572137689,2120
1777572137691,2112
1777572137693,2106
1777572137675,2099
1777572137677,2109
1777572137679,2140
1777572137681,2174
1777572137683,2189
1777572137685,2199
1777572137687,2197
1777572137689,2186
1777572137691,2190
1777572137693,2216
1777572137722,2232
1777572137724,2230
1777572137726,2235
1777572137728,2226
1777572137730,2210
1777572137732,2241
1777572137734,2235
1777572137736,2226
1777572137738,2220
1777572137740,2220
1777572137722,2218
1777572137724,2206
1777572137726,2194
1777572137728,2185
1777572137730,2175
1777572137732,2172
1777572137734,2168
1777572137736,2156
1777572137738,2143
1777572137740,2128
1777572137765,2112
1777572137767,2104
1777572137769,2092
1777572137771,2081
1777572137773,2055
1777572137775,2041
1777572137777,2001
1777572137779,2026
1777572137781,2009
1777572137783,1993
1777572137765,1975
1777572137767,1958
1777572137769,1945
1777572137771,1930
1777572137773,1920
1777572137775,1910
1777572137777,1896
1777572137779,1883
1777572137781,1869
1777572137783,1866
1777572137818,1868
1777572137820,1870
1777572137822,1877
1777572137824,1872
1777572137826,1867
1777572137828,1866
1777572137830,1853
1777572137832,1851
1777572137834,1843
1777572137836,1843
1777572137818,1858
1777572137820,1852
1777572137822,1852
1777572137824,1867
1777572137826,1872
1777572137828,1870
1777572137830,1867
1777572137832,1862
1777572137834,1854
1777572137836,1852
1777572137818,1852
1777572137820,1863
1777572137822,1872
1777572137824,1876
1777572137826,1867
1777572137828,1853
1777572137830,1844
1777572137832,1834
1777572137834,1835
1777572137836,1837
1777572137856,1862
1777572137858,1862
1777572137860,1915
1777572137862,1929
1777572137864,1931
1777572137866,1928
1777572137868,1926
1777572137870,1917
1777572137872,1915
1777572137874,1913
1777572137856,1912
1777572137858,1913
1777572137860,1917
1777572137862,1918
1777572137864,1911
1777572137866,1911
1777572137868,1908
1777572137870,1899
1777572137872,1902
1777572137874,1919
1777572137900,1932
1777572137902,1938
1777572137904,1938
1777572137906,1933
1777572137908,1935
1777572137910,1960
1777572137912,1962
1777572137914,1963
1777572137916,1965
1777572137918,1972
1777572137900,1979
1777572137902,1988
1777572137904,1991
1777572137906,1978
1777572137908,1982
1777572137910,1986
1777572137912,1981
1777572137914,1981
1777572137916,1987
1777572137918,1993
1777572137946,1993
1777572137948,1993
1777572137950,2001
1777572137952,2020
1777572137954,2021
1777572137956,2027
1777572137958,2008
1777572137960,2043
1777572137962,2043
1777572137964,2043
1777572137946,2046
1777572137948,2050
1777572137950,2050
1777572137952,2053
1777572137954,2048
1777572137956,2048
1777572137958,2057
1777572137960,2059
1777572137962,2056
1777572137964,2058
1777572137990,2059
1777572137992,2064
1777572137994,2082
1777572137996,2092
1777572137998,2096
1777572138000,2094
1777572138002,2087
1777572138004,2080
1777572138006,2081
1777572138008,2094
1777572137991,2119
1777572137993,2119
1777572137995,2117
1777572137997,2116
1777572137999,2107
1777572138001,2105
1777572138003,2104
1777572138005,2102
1777572138007,2097
1777572138009,2093
1777572137991,2091
1777572137993,2098
1777572137995,2116
1777572137997,2122
1777572137999,2114
1777572138001,2125
1777572138003,2136
1777572138005,2134
1777572138007,2129
1777572138009,2121
1777572138042,2108
1777572138044,2081
1777572138046,2114
1777572138048,2124
1777572138050,2121
1777572138052,2121
1777572138054,2126
1777572138056,2125
1777572138058,2123
1777572138060,2120
1777572138042,2124
1777572138044,2131
1777572138046,2135
1777572138048,2134
1777572138050,2130
1777572138052,2136
1777572138054,2141
1777572138056,2140
1777572138058,2136
1777572138060,2132
1777572138080,2129
1777572138082,2137
1777572138084,2137
1777572138086,2121
1777572138088,2127
1777572138090,2165
1777572138092,2179
1777572138094,2186
1777572138096,2187
1777572138098,2188
1777572138080,2189
1777572138082,2192
1777572138084,2194
1777572138086,2196
1777572138088,2199
1777572138090,2194
1777572138092,2184
1777572138094,2173
1777572138096,2170
1777572138098,2170
1777572138125,2178
1777572138127,2185
1777572138129,2194
1777572138131,2196
1777572138133,2182
1777572138135,2180
1777572138137,2165
1777572138139,2195
1777572138141,2186
1777572138143,2175
1777572138126,2176
1777572138128,2196
1777572138130,2211
1777572138132,2221
1777572138134,2223
1777572138136,2218
1777572138138,2218
1777572138140,2218
1777572138142,2222
1777572138144,2229
1777572138170,2238
1777572138172,2247
1777572138174,2250
1777572138176,2245
1777572138178,2235
1777572138180,2222
1777572138182,2215
1777572138184,2204
1777572138186,2189
1777572138188,2184
1777572138170,2203
1777572138172,2195
1777572138174,2199
1777572138176,2201
1777572138178,2205
1777572138180,2206
1777572138182,2204
1777572138184,2200
1777572138186,2194
1777572138188,2191
1777572138170,2197
1777572138172,2202
1777572138174,2205
1777572138176,2206
1777572138178,2204
1777572138180,2204
1777572138182,2201
1777572138184,2195
1777572138186,2187
1777572138188,2184
1777572138215,2182
1777572138217,2152
1777572138219,2182
1777572138221,2199
1777572138223,2196
1777572138225,2187
1777572138227,2185
1777572138229,2185
1777572138231,2184
1777572138233,2177
1777572138266,2172
1777572138268,2170
1777572138270,2170
1777572138272,2180
1777572138274,2210
1777572138276,2235
1777572138278,2245
1777572138280,2248
1777572138282,2246
1777572138284,2236
1777572138266,2240
1777572138268,2248
1777572138270,2256
1777572138272,2256
1777572138274,2267
1777572138276,2272
1777572138278,2265
1777572138280,2266
1777572138282,2262
1777572138284,2269
1777572138266,2285
1777572138268,2306
1777572138270,2325
1777572138272,2346
1777572138274,2357
1777572138276,2363
1777572138278,2361
1777572138280,2357
1777572138282,2349
1777572138284,2345
1777572138305,2337
1777572138307,2333
1777572138309,2328
1777572138311,2316
1777572138313,2289
1777572138315,2277
1777572138317,2247
1777572138319,2265
1777572138321,2259
1777572138323,2244
1777572138305,2234
1777572138307,2229
1777572138309,2231
1777572138311,2226
1777572138313,2213
1777572138315,2195
1777572138317,2173
1777572138319,2170
1777572138321,2170
1777572138323,2168
1777572138362,2171
1777572138364,2173
1777572138366,2174
1777572138368,2172
1777572138370,2163
1777572138372,2151
1777572138374,2139
1777572138376,2136
1777572138378,2127
1777572138380,2122
1777572138362,2136
1777572138364,2135
1777572138366,2146
1777572138368,2151
1777572138370,2146
1777572138372,2140
1777572138374,2129
1777572138376,2123
1777572138378,2108
1777572138380,2099
1777572138362,2113
1777572138364,2122
1777572138366,2117
1777572138368,2114
1777572138370,2115
1777572138372,2122
1777572138374,2113
1777572138376,2104
1777572138378,2094
1777572138380,2101
1777572138396,2109
1777572138398,2100
1777572138400,2154
1777572138402,2181
1777572138404,2196
1777572138406,2220
1777572138408,2245
1777572138410,2282
1777572138412,2331
1777572138414,2395
1777572138440,2471
1777572138442,2562
1777572138444,2648
1777572138446,2725
1777572138448,2789
1777572138450,2825
1777572138452,2830
1777572138454,2806
1777572138456,2770
1777572138458,2727
1777572138440,2680
1777572138442,2620
1777572138444,2546
1777572138446,2462
1777572138448,2397
1777572138450,2329
1777572138452,2256
1777572138454,2184
1777572138456,2117
1777572138458,2065
1777572138440,2037
1777572138442,2015
1777572138444,1994
1777572138446,1981
1777572138448,1971
1777572138450,1977
1777572138452,1977
1777572138454,1970
1777572138456,1965
1777572138458,1976
1777572138490,1990
1777572138492,1996
1777572138494,1996
1777572138496,1998
1777572138498,1997
1777572138500,2017
1777572138502,2008
1777572138504,2051
1777572138506,2058
1777572138508,2057
1777572138490,2059
1777572138492,2056
1777572138494,2059
1777572138496,2059
1777572138498,2063
1777572138500,2075
1777572138502,2077
1777572138504,2076
1777572138506,2077
1777572138508,2083
1777572138530,2089
1777572138532,2093
1777572138534,2097
1777572138536,2104
1777572138538,2097
1777572138540,2102
1777572138542,2092
1777572138544,2084
1777572138546,2064
1777572138548,2063
1777572138530,2090
1777572138532,2102
1777572138534,2106
1777572138536,2110
1777572138538,2107
1777572138540,2100
1777572138542,2089
1777572138544,2089
1777572138546,2089
1777572138548,2088
1777572138585,2119
1777572138587,2142
1777572138589,2154
1777572138591,2153
1777572138593,2158
1777572138595,2157
1777572138597,2154
1777572138599,2151
1777572138601,2149
1777572138603,2146
1777572138585,2156
1777572138587,2144
1777572138589,2190
1777572138591,2195
1777572138593,2180
1777572138595,2169
1777572138597,2169
1777572138599,2194
1777572138601,2214
1777572138603,2229
1777572138620,2240
1777572138622,2254
1777572138624,2261
1777572138626,2278
1777572138628,2286
1777572138630,2294
1777572138632,2295
1777572138634,2298
1777572138636,2300
1777572138638,2301
1777572138620,2311
1777572138622,2314
1777572138624,2318
1777572138626,2322
1777572138628,2341
1777572138630,2372
1777572138632,2385
1777572138634,2394
1777572138636,2401
1777572138638,2404
1777572138621,2415
1777572138623,2436
1777572138625,2461
1777572138627,2479
1777572138629,2490
1777572138631,2494
1777572138633,2501
1777572138635,2513
1777572138637,2530
1777572138639,2540
1777572138665,2559
1777572138667,2570
1777572138669,2577
1777572138671,2582
1777572138673,2569
1777572138675,2575
1777572138677,2545
1777572138679,2582
1777572138681,2597
1777572138683,2601
1777572138665,2598
1777572138667,2598
1777572138669,2602
1777572138671,2603
1777572138673,2600
1777572138675,2608
1777572138677,2620
1777572138679,2636
1777572138681,2651
1777572138683,2665
1777572138713,2676
1777572138715,2683
1777572138717,2695
1777572138719,2704
1777572138721,2703
1777572138723,2704
1777572138725,2700
1777572138727,2703
1777572138729,2718
1777572138731,2738
1777572138713,2767
1777572138715,2789
1777572138717,2805
1777572138719,2823
1777572138721,2836
1777572138723,2846
1777572138725,2857
1777572138727,2860
1777572138729,2867
1777572138731,2877
1777572138756,2899
1777572138758,2926
1777572138760,2948
1777572138762,2968
1777572138764,2990
1777572138766,3004
1777572138768,3015
1777572138770,3021
1777572138772,3032
1777572138774,3032
1777572138756,3048
1777572138758,3044
1777572138760,3101
1777572138762,3119
1777572138764,3130
1777572138766,3146
1777572138768,3163
1777572138770,3193
1777572138772,3214
1777572138774,3228
1777572138810,3242
1777572138812,3258
1777572138814,3282
1777572138816,3314
1777572138818,3335
1777572138820,3352
1777572138822,3347
1777572138824,3340
1777572138826,3351
1777572138828,3368
1777572138810,3396
1777572138812,3423
1777572138814,3438
1777572138816,3438
1777572138818,3448
1777572138820,3481
1777572138822,3497
1777572138824,3509
1777572138826,3526
1777572138828,3544
1777572138810,3558
1777572138812,3562
1777572138814,3578
1777572138816,3596
1777572138818,3614
1777572138820,3633
1777572138822,3641
1777572138824,3646
1777572138826,3655
1777572138828,3658
1777572138854,3672
1777572138856,3688
1777572138858,3696
1777572138860,3706
1777572138862,3695
1777572138864,3702
1777572138866,3682
1777572138868,3722
1777572138870,3736
1777572138872,3736
1777572138854,3740
1777572138856,3749
1777572138858,3750
1777572138860,3746
1777572138862,3760
1777572138864,3773
1777572138866,3774
1777572138868,3771
1777572138870,3772
1777572138872,3789
1777572138890,3802
1777572138892,3817
1777572138894,3821
1777572138896,3830
1777572138898,3844
1777572138900,3844
1777572138902,3845
1777572138904,3842
1777572138906,3835
1777572138908,3837
1777572138890,3853
1777572138892,3853
1777572138894,3853
1777572138896,3861
1777572138898,3861
1777572138900,3855
1777572138902,3836
1777572138904,3831
1777572138906,3822
1777572138908,3820
1777572138937,3823
1777572138939,3834
1777572138941,3847
1777572138943,3859
1777572138945,3854
1777572138947,3852
1777572138949,3851
1777572138951,3850
1777572138953,3846
1777572138955,3833
1777572138937,3832
1777572138939,3814
1777572138941,3848
1777572138943,3839
1777572138945,3825
1777572138947,3802
1777572138949,3791
1777572138951,3784
1777572138953,3775
1777572138955,3776
1777572138980,3781
1777572138982,3784
1777572138984,3785
1777572138986,3792
1777572138988,3797
1777572138990,3802
1777572138992,3800
1777572138994,3793
1777572138996,3790
1777572138998,3801
1777572138981,3804
1777572138983,3798
1777572138985,3773
1777572138987,3748
1777572138989,3746
1777572138991,3769
1777572138993,3770
1777572138995,3759
1777572138997,3749
1777572138999,3740
1777572138981,3747
1777572138983,3754
1777572138985,3753
1777572138987,3742
1777572138989,3733
1777572138991,3724
1777572138993,3720
1777572138995,3726
1777572138997,3737
1777572138999,3737
1777572139033,3737
1777572139035,3737
1777572139037,3738
1777572139039,3736
1777572139041,3725
1777572139043,3724
1777572139045,3693
1777572139047,3715
1777572139049,3720
1777572139051,3721
1777572139033,3718
1777572139035,3721
1777572139037,3719
1777572139039,3706
1777572139041,3685
1777572139043,3682
1777572139045,3703
1777572139047,3724
1777572139049,3733
1777572139051,3732
1777572139071,3735
1777572139073,3735
1777572139075,3733
1777572139077,3731
1777572139079,3725
1777572139081,3715
1777572139083,3690
1777572139085,3672
1777572139087,3672
1777572139089,3676
1777572139071,3688
1777572139073,3677
1777572139075,3688
1777572139077,3691
1777572139079,3688
1777572139081,3686
1777572139083,3674
1777572139085,3670
1777572139087,3673
1777572139089,3685
1777572139115,3703
1777572139117,3717
1777572139119,3715
1777572139121,3715
1777572139123,3710
1777572139125,3715
1777572139127,3709
1777572139129,3704
1777572139131,3696
1777572139133,3696
1777572139115,3704
1777572139117,3676
1777572139119,3695
1777572139121,3682
1777572139123,3659
1777572139125,3637
1777572139127,3626
1777572139129,3614
1777572139131,3611
1777572139133,3613
1777572139115,3628
1777572139117,3639
1777572139119,3658
1777572139121,3673
1777572139123,3676
1777572139125,3676
1777572139127,3673
1777572139129,3672
1777572139131,3672
1777572139133,3663
1777572139161,3658
1777572139163,3654
1777572139165,3638
1777572139167,3618
1777572139169,3597
1777572139171,3618
1777572139173,3608
1777572139175,3597
1777572139177,3583
1777572139179,3580
1777572139161,3591
1777572139163,3610
1777572139165,3625
1777572139167,3637
1777572139169,3646
1777572139171,3648
1777572139173,3639
1777572139175,3636
1777572139177,3634
1777572139179,3633
1777572139205,3636
1777572139207,3642
1777572139209,3644
1777572139211,3643
1777572139213,3640
1777572139215,3642
1777572139217,3624
1777572139219,3659
1777572139221,3660
1777572139223,3660
1777572139205,3671
1777572139207,3683
1777572139209,3704
1777572139211,3722
1777572139213,3730
1777572139215,3739
1777572139217,3739
1777572139219,3754
1777572139221,3765
1777572139223,3777
1777572139257,3797
1777572139259,3813
1777572139261,3815
1777572139263,3818
1777572139265,3819
1777572139267,3821
1777572139269,3820
1777572139271,3819
1777572139273,3825
1777572139275,3851
1777572139257,3904
1777572139259,3948
1777572139261,3992
1777572139263,4029
1777572139265,4070
1777572139267,4094
1777572139269,4095
1777572139271,4095
1777572139273,4095
1777572139275,4095
1777572139302,4095
1777572139304,4095
1777572139306,4095
1777572139308,4095
1777572139310,4095
1777572139312,4095
1777572139314,4095
1777572139316,4095
1777572139318,4095
1777572139320,4095
1777572139302,4095
1777572139304,4095
1777572139306,4095
1777572139308,4095
1777572139310,4095
1777572139312,4095
1777572139314,4095
1777572139316,4095
1777572139318,4075
1777572139320,4037
1777572139302,4010
1777572139304,3988
1777572139306,3980
1777572139308,3977
1777572139310,3969
1777572139312,3962
1777572139314,3958
1777572139316,3964
1777572139318,3987
1777572139320,4015
1777572139341,4029
1777572139343,4049
1777572139345,4070
1777572139347,4083
1777572139349,4085
1777572139351,4094
1777572139353,4082
1777572139355,4059
1777572139357,4076
1777572139359,4094
1777572139341,4095
1777572139343,4095
1777572139345,4095
1777572139347,4095
1777572139349,4095
1777572139351,4095
1777572139353,4095
1777572139355,4095
1777572139357,4095
1777572139359,4095
1777572139386,4095
1777572139388,4095
1777572139390,4095
1777572139392,4095
1777572139394,4095
1777572139396,4095
1777572139398,4095
1777572139400,4095
1777572139402,4095
1777572139404,4095
1777572139386,4095
1777572139388,4095
1777572139390,4095
1777572139392,4095
1777572139394,4095
1777572139396,4095
1777572139398,4095
1777572139400,4095
1777572139402,4095
1777572139404,4095
1777572139430,4095
1777572139432,4095
1777572139434,4095
1777572139436,4095
1777572139438,4095
1777572139440,4095
1777572139442,4095
1777572139444,4095
1777572139446,4095
1777572139448,4095
1777572139430,4095
1777572139432,4095
1777572139434,4095
1777572139436,4095
1777572139438,4095
1777572139440,4095
1777572139442,4095
1777572139444,4095
1777572139446,4095
1777572139448,4095
1777572139481,4095
1777572139483,4095
1777572139485,4095
1777572139487,4095
1777572139489,4095
1777572139491,4095
1777572139493,4095
1777572139495,4095
1777572139497,4095
1777572139499,4095
1777572139481,4095
1777572139483,4095
1777572139485,4095
1777572139487,4095
1777572139489,4095
1777572139491,4095
1777572139493,4095
1777572139495,4095
1777572139497,4095
1777572139499,4095
1777572139481,4095
1777572139483,4095
1777572139485,4095
1777572139487,4095
1777572139489,4095
1777572139491,4095
1777572139493,4095
1777572139495,4095
1777572139497,4095
1777572139499,4095
1777572139577,4095
1777572139579,4095
1777572139581,4095
1777572139583,4095
1777572139585,4095
1777572139587,4095
1777572139589,4095
1777572139591,4095
1777572139593,4095
1777572139595,4095
1777572139577,4095
1777572139579,4093
1777572139581,4068
1777572139583,4047
1777572139585,4024
1777572139587,4000
1777572139589,3957
1777572139591,3935
1777572139593,3916
1777572139595,3898
1777572139577,3896
1777572139579,3893
1777572139581,3871
1777572139583,3843
1777572139585,3816
1777572139587,3782
1777572139589,3749
1777572139591,3746
1777572139593,3729
1777572139595,3721
1777572139577,3714
1777572139579,3701
1777572139581,3690
1777572139583,3677
1777572139585,3660
1777572139587,3652
1777572139589,3652
1777572139591,3647
1777572139593,3651
1777572139595,3648
1777572139656,3643
1777572139658,3638
1777572139660,3630
1777572139662,3627
1777572139664,3615
1777572139666,3593
1777572139668,3560
1777572139670,3548
1777572139672,3547
1777572139674,3524
1777572139657,3560
1777572139659,3565
1777572139661,3562
1777572139663,3558
1777572139665,3541
1777572139667,3526
1777572139669,3510
1777572139671,3497
1777572139673,3485
1777572139675,3473
1777572139657,3465
1777572139659,3453
1777572139661,3451
1777572139663,3449
1777572139665,3432
1777572139667,3419
1777572139669,3414
1777572139671,3403
1777572139673,3395
1777572139675,3382
1777572139657,3383
1777572139659,3378
1777572139661,3386
1777572139663,3374
1777572139665,3361
1777572139667,3350
1777572139669,3331
1777572139671,3324
1777572139673,3322
1777572139675,3320
1777572139657,3313
1777572139659,3319
1777572139661,3313
1777572139663,3304
1777572139665,3288
1777572139667,3274
1777572139669,3260
1777572139671,3246
1777572139673,3234
1777572139675,3227
1777572139706,3227
1777572139708,3216
1777572139710,3194
1777572139712,3174
1777572139714,3145
1777572139716,3183
1777572139718,3181
1777572139720,3176
1777572139722,3163
1777572139724,3148
1777572139706,3135
1777572139708,3121
1777572139710,3111
1777572139712,3096
1777572139714,3088
1777572139716,3086
1777572139718,3076
1777572139720,3076
1777572139722,3070
1777572139724,3065
1777572139745,3061
1777572139747,3048
1777572139749,3030
1777572139751,3021
1777572139753,3014
1777572139755,3006
1777572139757,2979
1777572139759,3009
1777572139761,3000
1777572139763,2991
1777572139745,2987
1777572139747,2984
1777572139749,2972
1777572139751,2957
1777572139753,2938
1777572139755,2924
1777572139757,2918
1777572139759,2905
1777572139761,2891
1777572139763,2877
1777572139801,2865
1777572139803,2847
1777572139805,2840
1777572139807,2826
1777572139809,2812
1777572139811,2796
1777572139813,2771
1777572139815,2748
1777572139817,2738
1777572139819,2740
1777572139801,2760
1777572139803,2758
1777572139805,2750
1777572139807,2747
1777572139809,2737
1777572139811,2729
1777572139813,2720
1777572139815,2709
1777572139817,2696
1777572139819,2674
1777572139836,2645
1777572139838,2639
1777572139840,2649
1777572139842,2652
1777572139844,2655
1777572139846,2647
1777572139848,2635
1777572139850,2624
1777572139852,2607
1777572139854,2591
1777572139836,2588
1777572139838,2559
1777572139840,2589
1777572139842,2574
1777572139844,2565
1777572139846,2555
1777572139848,2541
1777572139850,2531
1777572139852,2527
1777572139854,2521
1777572139837,2523
1777572139839,2523
1777572139841,2512
1777572139843,2495
1777572139845,2474
1777572139847,2463
1777572139849,2453
1777572139851,2457
1777572139853,2458
1777572139855,2458
1777572139880,2457
1777572139882,2444
1777572139884,2420
1777572139886,2395
1777572139888,2382
1777572139890,2418
1777572139892,2407
1777572139894,2391
1777572139896,2370
1777572139898,2351
1777572139880,2338
1777572139882,2332
1777572139884,2329
1777572139886,2319
1777572139888,2309
1777572139890,2294
1777572139892,2296
1777572139894,2285
1777572139896,2279
1777572139898,2280
1777572139929,2269
1777572139931,2253
1777572139933,2238
1777572139935,2238
1777572139937,2241
1777572139939,2237
1777572139941,2210
1777572139943,2242
1777572139945,2235
1777572139947,2225
1777572139929,2216
1777572139931,2206
1777572139933,2196
1777572139935,2172
1777572139937,2145
1777572139939,2151
1777572139941,2150
1777572139943,2140
1777572139945,2140
1777572139947,2144
1777572139970,2147
1777572139972,2135
1777572139974,2130
1777572139976,2130
1777572139978,2124
1777572139980,2121
1777572139982,2110
1777572139984,2102
1777572139986,2088
1777572139988,2094
1777572139970,2110
1777572139972,2101
1777572139974,2088
1777572139976,2073
1777572139978,2065
1777572139980,2062
1777572139982,2057
1777572139984,2044
1777572139986,2041
1777572139988,2043
1777572140025,2047
1777572140027,2049
1777572140029,2043
1777572140031,2041
1777572140033,2035
1777572140035,2028
1777572140037,2019
1777572140039,2011
1777572140041,1997
1777572140043,1991
1777572140025,2000
1777572140027,1981
1777572140029,2009
1777572140031,1998
1777572140033,1994
1777572140035,1991
1777572140037,1992
1777572140039,2002
1777572140041,2012
1777572140043,2017
1777572140025,2015
1777572140027,2012
1777572140029,2014
1777572140031,2011
1777572140033,1996
1777572140035,1975
1777572140037,1958
1777572140039,1963
1777572140041,1973
1777572140043,1971
1777572140060,1975
1777572140062,1967
1777572140064,1947
1777572140066,1928
1777572140068,1906
1777572140070,1934
1777572140072,1918
1777572140074,1902
1777572140076,1905
1777572140078,1915
1777572140061,1921
1777572140063,1913
1777572140065,1898
1777572140067,1885
1777572140069,1874
1777572140071,1865
1777572140073,1865
1777572140075,1865
1777572140077,1864
1777572140079,1856
1777572140105,1850
1777572140107,1829
1777572140109,1820
1777572140111,1818
1777572140113,1814
1777572140115,1815
1777572140117,1780
1777572140119,1815
1777572140121,1812
1777572140123,1806
1777572140105,1803
1777572140107,1798
1777572140109,1787
1777572140111,1772
1777572140113,1752
1777572140115,1759
1777572140117,1773
1777572140119,1784
1777572140121,1784
1777572140123,1785
1777572140153,1777
1777572140155,1782
1777572140157,1779
1777572140159,1766
1777572140161,1744
1777572140163,1740
1777572140165,1735
1777572140167,1722
1777572140169,1712
1777572140171,1720
1777572140153,1739
1777572140155,1735
1777572140157,1726
1777572140159,1713
1777572140161,1705
1777572140163,1688
1777572140165,1675
1777572140167,1671
1777572140169,1670
1777572140171,1671
1777572140198,1666
1777572140200,1667
1777572140202,1666
1777572140204,1662
1777572140206,1661
1777572140208,1658
1777572140210,1645
1777572140212,1647
1777572140214,1662
1777572140216,1679
1777572140198,1699
1777572140200,1691
1777572140202,1754
1777572140204,1786
1777572140206,1806
1777572140208,1836
1777572140210,1887
1777572140212,1959
1777572140214,2031
1777572140216,2102
1777572140198,2183
1777572140200,2275
1777572140202,2355
1777572140204,2413
1777572140206,2446
1777572140208,2438
1777572140210,2407
1777572140212,2356
1777572140214,2285
1777572140216,2198
1777572140249,2107
1777572140251,2002
1777572140253,1895
1777572140255,1780
1777572140257,1657
1777572140259,1597
1777572140261,1523
1777572140263,1482
1777572140265,1459
1777572140267,1443
1777572140249,1437
1777572140251,1435
1777572140253,1434
1777572140255,1440
1777572140257,1445
1777572140259,1458
1777572140261,1471
1777572140263,1481
1777572140265,1492
1777572140267,1505
1777572140298,1506
1777572140300,1508
1777572140302,1518
1777572140304,1522
1777572140306,1510
1777572140308,1510
1777572140310,1491
1777572140312,1532
1777572140314,1534
1777572140316,1538
1777572140298,1533
1777572140300,1527
1777572140302,1520
1777572140304,1518
1777572140306,1513
1777572140308,1526
1777572140310,1537
1777572140312,1547
1777572140314,1557
1777572140316,1580
1777572140330,1600
1777572140332,1628
1777572140334,1643
1777572140336,1655
1777572140338,1655
1777572140340,1659
1777572140342,1666
1777572140344,1671
1777572140346,1679
1777572140348,1697
1777572140330,1734
1777572140332,1739
1777572140334,1735
1777572140336,1726
1777572140338,1726
1777572140340,1746
1777572140342,1755
1777572140344,1756
1777572140346,1768
1777572140348,1797
1777572140376,1829
1777572140378,1852
1777572140380,1871
1777572140382,1886
1777572140384,1896
1777572140386,1901
1777572140388,1909
1777572140390,1924
1777572140392,1943
1777572140394,1957
1777572140377,1980
1777572140379,1972
1777572140381,2014
1777572140383,2031
1777572140385,2042
1777572140387,2054
1777572140389,2058
1777572140391,2052
1777572140393,2065
1777572140395,2097
1777572140377,2130
1777572140379,2151
1777572140381,2176
1777572140383,2200
1777572140385,2213
1777572140387,2222
1777572140389,2240
1777572140391,2260
1777572140393,2280
1777572140395,2298
1777572140420,2303
1777572140422,2304
1777572140424,2312
1777572140426,2312
1777572140428,2300
1777572140430,2341
1777572140432,2360
1777572140434,2377
1777572140436,2378
1777572140438,2381
1777572140420,2394
1777572140422,2405
1777572140424,2408
1777572140426,2407
1777572140428,2402
1777572140430,2410
1777572140432,2415
1777572140434,2426
1777572140436,2433
1777572140438,2432
1777572140471,2431
1777572140473,2432
1777572140475,2428
1777572140477,2426
1777572140479,2410
1777572140481,2397
1777572140483,2370
1777572140485,2399
1777572140487,2393
1777572140489,2386
1777572140471,2375
1777572140473,2361
1777572140475,2350
1777572140477,2325
1777572140479,2301
1777572140481,2285
1777572140483,2278
1777572140485,2275
1777572140487,2278
1777572140489,2272
1777572140510,2254
1777572140512,2236
1777572140514,2227
1777572140516,2237
1777572140518,2254
1777572140520,2266
1777572140522,2263
1777572140524,2262
1777572140526,2254
1777572140528,2254
1777572140510,2271
1777572140512,2275
1777572140514,2268
1777572140516,2261
1777572140518,2246
1777572140520,2245
1777572140522,2245
1777572140524,2243
1777572140526,2247
1777572140528,2266
1777572140557,2282
1777572140559,2284
1777572140561,2289
1777572140563,2297
1777572140565,2295
1777572140567,2292
1777572140569,2296
1777572140571,2298
1777572140573,2294
1777572140575,2273
1777572140558,2272
1777572140560,2261
1777572140562,2274
1777572140564,2287
1777572140566,2313
1777572140568,2313
1777572140570,2309
1777572140572,2301
1777572140574,2300
1777572140576,2298
1777572140558,2297
1777572140560,2296
1777572140562,2295
1777572140564,2286
1777572140566,2270
1777572140568,2276
1777572140570,2288
1777572140572,2306
1777572140574,2325
1777572140576,2338
1777572140600,2343
1777572140602,2340
1777572140604,2349
1777572140606,2350
1777572140608,2319
1777572140610,2366
1777572140612,2361
1777572140614,2355
1777572140616,2357
1777572140618,2366
1777572140600,2377
1777572140602,2378
1777572140604,2378
1777572140606,2376
1777572140608,2362
1777572140610,2352
1777572140612,2361
1777572140614,2369
1777572140616,2376
1777572140618,2377
1777572140646,2376
1777572140648,2381
1777572140650,2379
1777572140652,2372
1777572140654,2357
1777572140656,2349
1777572140658,2324
1777572140660,2357
1777572140662,2349
1777572140664,2347
1777572140647,2362
1777572140649,2365
1777572140651,2360
1777572140653,2347
1777572140655,2359
1777572140657,2369
1777572140659,2374
1777572140661,2368
1777572140663,2361
1777572140665,2360
1777572140695,2375
1777572140697,2381
1777572140699,2383
1777572140701,2393
1777572140703,2408
1777572140705,2415
1777572140707,2408
1777572140709,2410
1777572140711,2400
1777572140713,2393
1777572140695,2412
1777572140697,2413
1777572140699,2410
1777572140701,2422
1777572140703,2421
1777572140705,2416
1777572140707,2411
1777572140709,2409
1777572140711,2407
1777572140713,2396
1777572140695,2395
1777572140697,2395
1777572140699,2393
1777572140701,2393
1777572140703,2394
1777572140705,2393
1777572140707,2396
1777572140709,2395
1777572140711,2394
1777572140713,2390
1777572140735,2391
1777572140737,2360
1777572140739,2385
1777572140741,2390
1777572140743,2383
1777572140745,2380
1777572140747,2378
1777572140749,2375
1777572140751,2362
1777572140753,2347
1777572140735,2340
1777572140737,2333
1777572140739,2342
1777572140741,2347
1777572140743,2345
1777572140745,2349
1777572140747,2345
1777572140749,2344
1777572140751,2347
1777572140753,2345
1777572140780,2336
1777572140782,2328
1777572140784,2324
1777572140786,2303
1777572140788,2286
1777572140790,2302
1777572140792,2302
1777572140794,2289
1777572140796,2279
1777572140798,2279
1777572140781,2277
1777572140783,2270
1777572140785,2266
1777572140787,2252
1777572140789,2244
1777572140791,2235
1777572140793,2223
1777572140795,2218
1777572140797,2216
1777572140799,2214
1777572140825,2205
1777572140827,2199
1777572140829,2186
1777572140831,2171
1777572140833,2151
1777572140835,2140
1777572140837,2122
1777572140839,2157
1777572140841,2153
1777572140843,2138
1777572140826,2129
1777572140828,2124
1777572140830,2122
1777572140832,2118
1777572140834,2098
1777572140836,2083
1777572140838,2075
1777572140840,2083
1777572140842,2091
1777572140844,2092
1777572140870,2090
1777572140872,2082
1777572140874,2073
1777572140876,2061
1777572140878,2054
1777572140880,2042
1777572140882,2029
1777572140884,2022
1777572140886,2002
1777572140888,1998
1777572140870,2014
1777572140872,2002
1777572140874,1993
1777572140876,1991
1777572140878,1992
1777572140880,1991
1777572140882,1986
1777572140884,1981
1777572140886,1980
1777572140888,1978
1777572140870,1976
1777572140872,1972
1777572140874,1965
1777572140876,1964
1777572140878,1956
1777572140880,1946
1777572140882,1932
1777572140884,1925
1777572140886,1934
1777572140888,1942
1777572140920,1942
1777572140922,1911
1777572140924,1932
1777572140926,1932
1777572140928,1921
1777572140930,1913
1777572140932,1906
1777572140934,1901
1777572140936,1900
1777572140938,1894
1777572140920,1880
1777572140922,1867
1777572140924,1861
1777572140926,1852
1777572140928,1837
1777572140930,1856
1777572140932,1875
1777572140934,1882
1777572140936,1892
1777572140938,1902
1777572140960,1903
1777572140962,1903
1777572140964,1902
1777572140966,1890
1777572140968,1882
1777572140970,1899
1777572140972,1897
1777572140974,1891
1777572140976,1884
1777572140978,1874
1777572140960,1864
1777572140962,1866
1777572140964,1871
1777572140966,1874
1777572140968,1872
1777572140970,1861
1777572140972,1847
1777572140974,1837
1777572140976,1842
1777572140978,1850
1777572141006,1854
1777572141008,1853
1777572141010,1850
1777572141012,1846
1777572141014,1831
1777572141016,1822
1777572141018,1800
1777572141020,1838
1777572141022,1840
1777572141024,1837
1777572141006,1829
1777572141008,1812
1777572141010,1799
1777572141012,1810
1777572141014,1812
1777572141016,1811
1777572141018,1805
1777572141020,1803
1777572141022,1800
1777572141024,1792
1777572141050,1788
1777572141052,1785
1777572141054,1786
1777572141056,1789
1777572141058,1790
1777572141060,1789
1777572141062,1791
1777572141064,1790
1777572141066,1782
1777572141068,1783
1777572141050,1802
1777572141052,1786
1777572141054,1777
1777572141056,1769
1777572141058,1775
1777572141060,1783
1777572141062,1779
1777572141064,1796
1777572141066,1818
1777572141068,1831
1777572141050,1835
1777572141052,1835
1777572141054,1834
1777572141056,1831
1777572141058,1816
1777572141060,1800
1777572141062,1786
1777572141064,1783
1777572141066,1775
1777572141068,1768
1777572141095,1762
1777572141097,1737
1777572141099,1778
1777572141101,1788
1777572141103,1784
1777572141105,1784
1777572141107,1782
1777572141109,1778
1777572141111,1770
1777572141113,1763
1777572141143,1761
1777572141145,1751
1777572141147,1736
1777572141149,1718
1777572141151,1719
1777572141153,1731
1777572141155,1738
1777572141157,1739
1777572141159,1737
1777572141161,1728
1777572141143,1719
1777572141145,1706
1777572141147,1686
1777572141149,1655
1777572141151,1658
1777572141153,1675
1777572141155,1684
1777572141157,1703
1777572141159,1711
1777572141161,1711
1777572141143,1706
1777572141145,1703
1777572141147,1693
1777572141149,1690
1777572141151,1685
1777572141153,1682
1777572141155,1675
1777572141157,1672
1777572141159,1670
1777572141161,1671
1777572141186,1662
1777572141188,1659
1777572141190,1661
1777572141192,1661
1777572141194,1655
1777572141196,1653
1777572141198,1627
1777572141200,1665
1777572141202,1674
1777572141204,1675
1777572141186,1676
1777572141188,1672
1777572141190,1660
1777572141192,1651
1777572141194,1637
1777572141196,1626
1777572141198,1615
1777572141200,1618
1777572141202,1634
1777572141204,1650
1777572141239,1658
1777572141241,1656
1777572141243,1657
1777572141245,1657
1777572141247,1662
1777572141249,1674
1777572141251,1694
1777572141253,1714
1777572141255,1723
1777572141257,1751
1777572141239,1803
1777572141241,1837
1777572141243,1881
1777572141245,1935
1777572141247,1999
1777572141249,2084
1777572141251,2175
1777572141253,2263
1777572141255,2338
1777572141257,2395
1777572141239,2433
1777572141241,2443
1777572141243,2427
1777572141245,2393
1777572141247,2336
1777572141249,2265
1777572141251,2175
1777572141253,2079
1777572141255,1987
1777572141257,1886
1777572141275,1790
1777572141277,1675
1777572141279,1643
1777572141281,1586
1777572141283,1525
1777572141285,1483
1777572141287,1460
1777572141289,1451
1777572141291,1453
1777572141293,1464
1777572141320,1479
1777572141322,1503
1777572141324,1524
1777572141326,1542
1777572141328,1567
1777572141330,1586
1777572141332,1600
1777572141334,1609
1777572141336,1620
1777572141338,1634
1777572141320,1645
1777572141322,1657
1777572141324,1657
1777572141326,1651
1777572141328,1677
1777572141330,1694
1777572141332,1701
1777572141334,1709
1777572141336,1719
1777572141338,1722
1777572141320,1723
1777572141322,1728
1777572141324,1738
1777572141326,1740
1777572141328,1744
1777572141330,1754
1777572141332,1755
1777572141334,1758
1777572141336,1768
1777572141338,1783
1777572141411,1802
1777572141413,1816
1777572141415,1824
1777572141417,1838
1777572141419,1842
1777572141421,1848
1777572141423,1822
1777572141425,1860
1777572141427,1867
1777572141429,1865
1777572141412,1863
1777572141414,1860
1777572141416,1863
1777572141418,1857
1777572141420,1857
1777572141422,1864
1777572141424,1866
1777572141426,1863
1777572141428,1852
1777572141430,1851
1777572141412,1856
1777572141414,1869
1777572141416,1892
1777572141418,1908
1777572141420,1903
1777572141422,1915
1777572141424,1926
1777572141426,1947
1777572141428,1952
1777572141430,1973
1777572141412,1978
1777572141414,1982
1777572141416,1985
1777572141418,1981
1777572141420,1979
1777572141422,1988
1777572141424,2009
1777572141426,2028
1777572141428,2044
1777572141430,2058
1777572141464,2064
1777572141466,2074
1777572141468,2101
1777572141470,2126
1777572141472,2152
1777572141474,2175
1777572141476,2192
1777572141478,2211
1777572141480,2238
1777572141482,2251
1777572141464,2269
1777572141466,2260
1777572141468,2296
1777572141470,2330
1777572141472,2334
1777572141474,2346
1777572141476,2352
1777572141478,2373
1777572141480,2387
1777572141482,2403
1777572141502,2418
1777572141504,2427
1777572141506,2426
1777572141508,2428
1777572141510,2422
1777572141512,2414
1777572141514,2408
1777572141516,2426
1777572141518,2461
1777572141520,2478
1777572141502,2478
1777572141504,2472
1777572141506,2458
1777572141508,2444
1777572141510,2432
1777572141512,2445
1777572141514,2436
1777572141516,2416
1777572141518,2398
1777572141520,2384
1777572141502,2379
1777572141504,2365
1777572141506,2350
1777572141508,2333
1777572141510,2306
1777572141512,2283
1777572141514,2263
1777572141516,2243
1777572141518,2226
1777572141520,2213
1777572141545,2202
1777572141547,2187
1777572141549,2169
1777572141551,2146
1777572141553,2112
1777572141555,2100
1777572141557,2061
1777572141559,2072
1777572141561,2088
1777572141563,2071
1777572141545,2056
1777572141547,2045
1777572141549,2042
1777572141551,2034
1777572141553,2023
1777572141555,2027
1777572141557,2037
1777572141559,2040
1777572141561,2038
1777572141563,2029
1777572141591,2022
1777572141593,2026
1777572141595,2036
1777572141597,2041
1777572141599,2040
1777572141601,2042
1777572141603,2040
1777572141605,2038
1777572141607,2031
1777572141609,2023
1777572141591,2049
1777572141593,2061
1777572141595,2064
1777572141597,2070
1777572141599,2075
1777572141601,2079
1777572141603,2087
1777572141605,2085
1777572141607,2075
1777572141609,2067
1777572141635,2061
1777572141637,2053
1777572141639,2038
1777572141641,2025
1777572141643,2018
1777572141645,2006
1777572141647,2005
1777572141649,2016
1777572141651,2024
1777572141653,2021
1777572141635,2024
1777572141637,1996
1777572141639,2024
1777572141641,2006
1777572141643,1981
1777572141645,1961
1777572141647,1947
1777572141649,1956
1777572141651,1974
1777572141653,1981
1777572141687,1989
1777572141689,1993
1777572141691,1984
1777572141693,1979
1777572141695,1971
1777572141697,1965
1777572141699,1960
1777572141701,1951
1777572141703,1948
1777572141705,1948
1777572141687,1949
1777572141689,1947
1777572141691,1944
1777572141693,1947
1777572141695,1946
1777572141697,1962
1777572141699,1962
1777572141701,1962
1777572141703,1962
1777572141705,1960
1777572141687,1956
1777572141689,1945
1777572141691,1944
1777572141693,1943
1777572141695,1941
1777572141697,1944
1777572141699,1946
1777572141701,1948
1777572141703,1955
1777572141705,1963
1777572141725,1965
1777572141727,1964
1777572141729,1963
1777572141731,1964
1777572141733,1959
1777572141735,1955
1777572141737,1917
1777572141739,1950
1777572141741,1962
1777572141743,1964
1777572141725,1972
1777572141727,1984
1777572141729,1992
1777572141731,1988
1777572141733,1977
1777572141735,1985
1777572141737,1995
1777572141739,2005
1777572141741,2013
1777572141743,2013
1777572141770,2007
1777572141772,2009
1777572141774,2003
1777572141776,1988
1777572141778,1978
1777572141780,1992
1777572141782,2020
1777572141784,2027
1777572141786,2025
1777572141788,2024
1777572141770,2043
1777572141772,2041
1777572141774,2035
1777572141776,2025
1777572141778,2009
1777572141780,2000
1777572141782,2002
1777572141784,2020
1777572141786,2025
1777572141788,2028
1777572141815,2027
1777572141817,2026
1777572141819,2018
1777572141821,2014
1777572141823,2007
1777572141825,2010
1777572141827,2016
1777572141829,2026
1777572141831,2034
1777572141833,2034
1777572141815,2037
1777572141817,2014
1777572141819,2042
1777572141821,2033
1777572141823,2018
1777572141825,2008
1777572141827,2029
1777572141829,2046
1777572141831,2059
1777572141833,2074
1777572141860,2078
1777572141862,2076
1777572141864,2077
1777572141866,2071
1777572141868,2052
1777572141870,2043
1777572141872,2046
1777572141874,2046
1777572141876,2054
1777572141878,2062
1777572141860,2073
1777572141862,2075
1777572141864,2063
1777572141866,2057
1777572141868,2055
1777572141870,2075
1777572141872,2078
1777572141874,2076
1777572141876,2076
1777572141878,2074
1777572141860,2076
1777572141862,2074
1777572141864,2075
1777572141866,2075
1777572141868,2071
1777572141870,2075
1777572141872,2076
1777572141874,2078
1777572141876,2076
1777572141878,2078
1777572141950,2087
1777572141952,2089
1777572141954,2087
1777572141956,2081
1777572141958,2069
1777572141960,2075
1777572141962,2042
1777572141964,2064
1777572141966,2078
1777572141968,2092
1777572141950,2101
1777572141952,2111
1777572141954,2107
1777572141956,2102
1777572141958,2091
1777572141960,2097
1777572141962,2108
1777572141964,2110
1777572141966,2108
1777572141968,2104
1777572141950,2106
1777572141952,2114
1777572141954,2117
1777572141956,2116
1777572141958,2109
1777572141960,2105
1777572141962,2103
1777572141964,2090
1777572141966,2067
1777572141968,2062
1777572141953,2068
1777572141955,2095
1777572141957,2107
1777572141959,2108
1777572141961,2105
1777572141963,2102
1777572141965,2092
1777572141967,2091
1777572141969,2091
1777572141971,2098
1777572141995,2101
1777572141997,2092
1777572141999,2077
1777572142001,2076
1777572142003,2074
1777572142005,2082
1777572142007,2091
1777572142009,2098
1777572142011,2105
1777572142013,2104
1777572141995,2105
1777572141997,2077
1777572141999,2090
1777572142001,2102
1777572142003,2085
1777572142005,2080
1777572142007,2087
1777572142009,2090
1777572142011,2091
1777572142013,2092
1777572141995,2100
1777572141997,2105
1777572141999,2109
1777572142001,2107
1777572142003,2102
1777572142005,2105
1777572142007,2105
1777572142009,2107
1777572142011,2108
1777572142013,2108
1777572142040,2104
1777572142042,2092
1777572142044,2089
1777572142046,2088
1777572142048,2074
1777572142050,2108
1777572142052,2115
1777572142054,2122
1777572142056,2122
1777572142058,2117
1777572142040,2114
1777572142042,2121
1777572142044,2125
1777572142046,2125
1777572142048,2121
1777572142050,2122
1777572142052,2126
1777572142054,2136
1777572142056,2139
1777572142058,2139
1777572142085,2134
1777572142087,2125
1777572142089,2122
1777572142091,2111
1777572142093,2098
1777572142095,2092
1777572142097,2075
1777572142099,2118
1777572142101,2121
1777572142103,2118
1777572142085,2124
1777572142087,2132
1777572142089,2132
1777572142091,2131
1777572142093,2123
1777572142095,2123
1777572142097,2123
1777572142099,2138
1777572142101,2145
1777572142103,2151
1777572142136,2151
1777572142138,2149
1777572142140,2147
1777572142142,2152
1777572142144,2146
1777572142146,2143
1777572142148,2139
1777572142150,2135
1777572142152,2133
1777572142154,2143
1777572142136,2170
1777572142138,2172
1777572142140,2183
1777572142142,2187
1777572142144,2200
1777572142146,2192
1777572142148,2175
1777572142150,2157
1777572142152,2176
1777572142154,2216
1777572142175,2256
1777572142177,2273
1777572142179,2279
1777572142181,2295
1777572142183,2291
1777572142185,2280
1777572142187,2268
1777572142189,2257
1777572142191,2251
1777572142193,2238
1777572142175,2225
1777572142177,2203
1777572142179,2246
1777572142181,2246
1777572142183,2232
1777572142185,2227
1777572142187,2219
1777572142189,2218
1777572142191,2221
1777572142193,2220
1777572142176,2213
1777572142178,2199
1777572142180,2188
1777572142182,2173
1777572142184,2162
1777572142186,2156
1777572142188,2152
1777572142190,2144
1777572142192,2142
1777572142194,2139
1777572142220,2136
1777572142222,2134
1777572142224,2122
1777572142226,2103
1777572142228,2080
1777572142230,2107
1777572142232,2093
1777572142234,2083
1777572142236,2090
1777572142238,2103
1777572142220,2112
1777572142222,2124
1777572142224,2126
1777572142226,2123
1777572142228,2110
1777572142230,2103
1777572142232,2108
1777572142234,2120
1777572142236,2113
1777572142238,2117
1777572142266,2129
1777572142268,2138
1777572142270,2141
1777572142272,2133
1777572142274,2123
1777572142276,2121
1777572142278,2096
1777572142280,2141
1777572142282,2153
1777572142284,2160
1777572142266,2168
1777572142268,2169
1777572142270,2165
1777572142272,2160
1777572142274,2168
1777572142276,2171
1777572142278,2176
1777572142280,2186
1777572142282,2196
1777572142284,2205
1777572142311,2213
1777572142313,2216
1777572142315,2214
1777572142317,2218
1777572142319,2220
1777572142321,2233
1777572142323,2247
1777572142325,2263
1777572142327,2287
1777572142329,2322
1777572142311,2381
1777572142313,2422
1777572142315,2468
1777572142317,2532
1777572142319,2615
1777572142321,2712
1777572142323,2810
1777572142325,2890
1777572142327,2956
1777572142329,2996
1777572142360,3005
1777572142362,2991
1777572142364,2960
1777572142366,2908
1777572142368,2835
1777572142370,2753
1777572142372,2665
1777572142374,2574
1777572142376,2487
1777572142378,2395
1777572142360,2317
1777572142362,2223
1777572142364,2196
1777572142366,2139
1777572142368,2096
1777572142370,2089
1777572142372,2091
1777572142374,2101
1777572142376,2108
1777572142378,2115
1777572142400,2120
1777572142402,2136
1777572142404,2151
1777572142406,2159
1777572142408,2166
1777572142410,2182
1777572142412,2194
1777572142414,2206
1777572142416,2216
1777572142418,2214
1777572142400,2210
1777572142402,2215
1777572142404,2219
1777572142406,2212
1777572142408,2199
1777572142410,2230
1777572142412,2229
1777572142414,2229
1777572142416,2220
1777572142418,2211
1777572142400,2204
1777572142402,2210
1777572142404,2217
1777572142406,2217
1777572142408,2220
1777572142410,2236
1777572142412,2249
1777572142414,2265
1777572142416,2267
1777572142418,2267
1777572142445,2268
1777572142447,2265
1777572142449,2257
1777572142451,2260
1777572142453,2266
1777572142455,2277
1777572142457,2261
1777572142459,2306
1777572142461,2327
1777572142463,2329
1777572142446,2331
1777572142448,2330
1777572142450,2321
1777572142452,2317
1777572142454,2316
1777572142456,2315
1777572142458,2327
1777572142460,2324
1777572142462,2312
1777572142464,2314
1777572142490,2332
1777572142492,2350
1777572142494,2374
1777572142496,2387
1777572142498,2391
1777572142500,2395
1777572142502,2401
1777572142504,2411
1777572142506,2419
1777572142508,2428
1777572142490,2457
1777572142492,2459
1777572142494,2462
1777572142496,2464
1777572142498,2461
1777572142500,2468
1777572142502,2476
1777572142504,2488
1777572142506,2486
1777572142508,2476
1777572142535,2482
1777572142537,2491
1777572142539,2511
1777572142541,2536
1777572142543,2558
1777572142545,2582
1777572142547,2598
1777572142549,2611
1777572142551,2620
1777572142553,2621
1777572142535,2622
1777572142537,2598
1777572142539,2634
1777572142541,2629
1777572142543,2621
1777572142545,2620
1777572142547,2605
1777572142549,2603
1777572142551,2632
1777572142553,2651
1777572142535,2658
1777572142537,2664
1777572142539,2652
1777572142541,2650
1777572142543,2651
1777572142545,2651
1777572142547,2649
1777572142549,2642
1777572142551,2633
1777572142553,2618
1777572142586,2600
1777572142588,2583
1777572142590,2552
1777572142592,2522
1777572142594,2481
1777572142596,2508
1777572142598,2502
1777572142600,2487
1777572142602,2465
1777572142604,2443
1777572142586,2428
1777572142588,2407
1777572142590,2384
1777572142592,2363
1777572142594,2342
1777572142596,2325
1777572142598,2302
1777572142600,2288
1777572142602,2277
1777572142604,2268
1777572142631,2260
1777572142633,2251
1777572142635,2248
1777572142637,2249
1777572142639,2244
1777572142641,2239
1777572142643,2213
1777572142645,2251
1777572142647,2251
1777572142649,2245
1777572142631,2236
1777572142633,2229
1777572142635,2218
1777572142637,2205
1777572142639,2193
1777572142641,2187
1777572142643,2189
1777572142645,2189
1777572142647,2193
1777572142649,2204
1777572142682,2215
1777572142684,2217
1777572142686,2219
1777572142688,2218
1777572142690,2219
1777572142692,2228
1777572142694,2232
1777572142696,2226
1777572142698,2224
1777572142700,2215
1777572142682,2231
1777572142684,2221
1777572142686,2218
1777572142688,2210
1777572142690,2200
1777572142692,2203
1777572142694,2208
1777572142696,2218
1777572142698,2233
1777572142700,2237
1777572142727,2234
1777572142729,2235
1777572142731,2234
1777572142733,2233
1777572142735,2232
1777572142737,2232
1777572142739,2230
1777572142741,2222
1777572142743,2211
1777572142745,2203
1777572142727,2213
1777572142729,2195
1777572142731,2234
1777572142733,2232
1777572142735,2237
1777572142737,2241
1777572142739,2242
1777572142741,2243
1777572142743,2249
1777572142745,2251
1777572142727,2252
1777572142729,2252
1777572142731,2249
1777572142733,2245
1777572142735,2242
1777572142737,2244
1777572142739,2234
1777572142741,2238
1777572142743,2239
1777572142745,2244
1777572142760,2253
1777572142762,2250
1777572142764,2237
1777572142766,2226
1777572142768,2200
1777572142770,2238
1777572142772,2236
1777572142774,2231
1777572142776,2220
1777572142778,2211
1777572142760,2216
1777572142762,2224
1777572142764,2221
1777572142766,2217
1777572142768,2219
1777572142770,2225
1777572142772,2237
1777572142774,2244
1777572142776,2246
1777572142778,2248
1777572142810,2250
1777572142812,2251
1777572142814,2247
1777572142816,2247
1777572142818,2244
1777572142820,2243
1777572142822,2208
1777572142824,2239
1777572142826,2243
1777572142828,2247
1777572142810,2260
1777572142812,2275
1777572142814,2284
1777572142816,2286
1777572142818,2280
1777572142820,2282
1777572142822,2282
1777572142824,2283
1777572142826,2285
1777572142828,2284
1777572142850,2280
1777572142852,2280
1777572142854,2281
1777572142856,2274
1777572142858,2264
1777572142860,2252
1777572142862,2244
1777572142864,2242
1777572142866,2256
1777572142868,2258
1777572142850,2285
1777572142852,2283
1777572142854,2276
1777572142856,2267
1777572142858,2261
1777572142860,2262
1777572142862,2265
1777572142864,2268
1777572142866,2268
1777572142868,2261
1777572142906,2252
1777572142908,2255
1777572142910,2253
1777572142912,2252
1777572142914,2253
1777572142916,2256
1777572142918,2252
1777572142920,2251
1777572142922,2259
1777572142924,2262
1777572142906,2264
1777572142908,2238
1777572142910,2276
1777572142912,2273
1777572142914,2269
1777572142916,2266
1777572142918,2256
1777572142920,2254
1777572142922,2253
1777572142924,2248
1777572142906,2255
1777572142908,2273
1777572142910,2282
1777572142912,2285
1777572142914,2288
1777572142916,2285
1777572142918,2281
1777572142920,2284
1777572142922,2283
1777572142924,2277
1777572142941,2267
1777572142943,2264
1777572142945,2250
1777572142947,2247
1777572142949,2237
1777572142951,2284
1777572142953,2283
1777572142955,2283
1777572142957,2287
1777572142959,2299
1777572142941,2311
1777572142943,2315
1777572142945,2314
1777572142947,2309
1777572142949,2302
1777572142951,2299
1777572142953,2300
1777572142955,2297
1777572142957,2291
1777572142959,2296
1777572142985,2302
1777572142987,2299
1777572142989,2299
1777572142991,2292
1777572142993,2277
1777572142995,2276
1777572142997,2257
1777572142999,2300
1777572143001,2314
1777572143003,2316
1777572142985,2314
1777572142987,2310
1777572142989,2306
1777572142991,2301
1777572142993,2293
1777572142995,2301
1777572142997,2307
1777572142999,2313
1777572143001,2308
1777572143003,2301
1777572143035,2297
1777572143037,2301
1777572143039,2302
1777572143041,2297
1777572143043,2288
1777572143045,2287
1777572143047,2300
1777572143049,2315
1777572143051,2323
1777572143053,2324
1777572143035,2347
1777572143037,2345
1777572143039,2339
1777572143041,2327
1777572143043,2329
1777572143045,2331
1777572143047,2333
1777572143049,2339
1777572143051,2345
1777572143053,2346
1777572143131,2352
1777572143133,2359
1777572143135,2358
1777572143137,2354
1777572143139,2352
1777572143141,2354
1777572143143,2353
1777572143145,2361
1777572143147,2362
1777572143149,2357
1777572143131,2356
1777572143133,2336
1777572143135,2361
1777572143137,2361
1777572143139,2356
1777572143141,2360
1777572143143,2361
1777572143145,2362
1777572143147,2360
1777572143149,2352
1777572143131,2348
1777572143133,2349
1777572143135,2353
1777572143137,2357
1777572143139,2361
1777572143141,2362
1777572143143,2378
1777572143145,2381
1777572143147,2383
1777572143149,2380
1777572143131,2373
1777572143133,2357
1777572143135,2339
1777572143137,2330
1777572143139,2350
1777572143141,2367
1777572143143,2376
1777572143145,2386
1777572143147,2391
1777572143149,2392
1777572143131,2392
1777572143133,2393
1777572143135,2394
1777572143137,2396
1777572143139,2390
1777572143141,2392
1777572143143,2391
1777572143145,2394
1777572143147,2394
1777572143149,2386
1777572143165,2375
1777572143167,2362
1777572143169,2371
1777572143171,2373
1777572143173,2365
1777572143175,2366
1777572143177,2352
1777572143179,2355
1777572143181,2395
1777572143183,2389
1777572143165,2375
1777572143167,2358
1777572143169,2346
1777572143171,2335
1777572143173,2325
1777572143175,2327
1777572143177,2325
1777572143179,2328
1777572143181,2329
1777572143183,2329
1777572143210,2328
1777572143212,2331
1777572143214,2329
1777572143216,2318
1777572143218,2312
1777572143220,2315
1777572143222,2316
1777572143224,2325
1777572143226,2338
1777572143228,2342
1777572143210,2362
1777572143212,2350
1777572143214,2346
1777572143216,2345
1777572143218,2346
1777572143220,2351
1777572143222,2362
1777572143224,2365
1777572143226,2364
1777572143228,2364
1777572143258,2366
1777572143260,2366
1777572143262,2364
1777572143264,2362
1777572143266,2362
1777572143268,2366
1777572143270,2365
1777572143272,2375
1777572143274,2379
1777572143276,2376
1777572143258,2379
1777572143260,2351
1777572143262,2363
1777572143264,2359
1777572143266,2347
1777572143268,2333
1777572143270,2319
1777572143272,2325
1777572143274,2333
1777572143276,2344
1777572143258,2347
1777572143260,2348
1777572143262,2349
1777572143264,2347
1777572143266,2334
1777572143268,2326
1777572143270,2329
1777572143272,2323
1777572143274,2311
1777572143276,2304
1777572143310,2311
1777572143312,2305
1777572143314,2297
1777572143316,2283
1777572143318,2255
1777572143320,2284
1777572143322,2280
1777572143324,2270
1777572143326,2263
1777572143328,2252
1777572143310,2242
1777572143312,2230
1777572143314,2220
1777572143316,2219
1777572143318,2214
1777572143320,2219
1777572143322,2220
1777572143324,2228
1777572143326,2233
1777572143328,2238
1777572143355,2237
1777572143357,2236
1777572143359,2234
1777572143361,2230
1777572143363,2226
1777572143365,2235
1777572143367,2219
1777572143369,2256
1777572143371,2257
1777572143373,2251
1777572143355,2250
1777572143357,2244
1777572143359,2234
1777572143361,2223
1777572143363,2225
1777572143365,2229
1777572143367,2232
1777572143369,2232
1777572143371,2233
1777572143373,2232
1777572143391,2218
1777572143393,2195
1777572143395,2186
1777572143397,2187
1777572143399,2205
1777572143401,2229
1777572143403,2238
1777572143405,2239
1777572143407,2241
1777572143409,2238
1777572143391,2267
1777572143393,2276
1777572143395,2282
1777572143397,2297
1777572143399,2310
1777572143401,2334
1777572143403,2366
1777572143405,2405
1777572143407,2464
1777572143409,2543
1777572143391,2638
1777572143393,2729
1777572143395,2810
1777572143397,2877
1777572143399,2916
1777572143401,2916
1777572143403,2903
1777572143405,2880
1777572143407,2843
1777572143409,2786
1777572143435,2701
1777572143437,2573
1777572143439,2496
1777572143441,2419
1777572143443,2343
1777572143445,2273
1777572143447,2208
1777572143449,2157
1777572143451,2113
1777572143453,2072
1777572143435,2044
1777572143437,2029
1777572143439,2014
1777572143441,2011
1777572143443,2008
1777572143445,2025
1777572143447,2049
1777572143449,2068
1777572143451,2086
1777572143453,2092
1777572143483,2092
1777572143485,2084
1777572143487,2087
1777572143489,2096
1777572143491,2100
1777572143493,2131
1777572143495,2137
1777572143497,2138
1777572143499,2138
1777572143501,2138
1777572143483,2137
1777572143485,2131
1777572143487,2124
1777572143489,2123
1777572143491,2126
1777572143493,2141
1777572143495,2156
1777572143497,2167
1777572143499,2168
1777572143501,2167
1777572143525,2166
1777572143527,2171
1777572143529,2177
1777572143531,2185
1777572143533,2176
1777572143535,2171
1777572143537,2145
1777572143539,2184
1777572143541,2188
1777572143543,2189
1777572143525,2197
1777572143527,2204
1777572143529,2206
1777572143531,2212
1777572143533,2221
1777572143535,2230
1777572143537,2234
1777572143539,2236
1777572143541,2236
1777572143543,2227
1777572143579,2219
1777572143581,2217
1777572143583,2219
1777572143585,2222
1777572143587,2230
1777572143589,2232
1777572143591,2232
1777572143593,2248
1777572143595,2249
1777572143597,2245
1777572143579,2267
1777572143581,2262
1777572143583,2253
1777572143585,2262
1777572143587,2269
1777572143589,2286
1777572143591,2297
1777572143593,2300
1777572143595,2304
1777572143597,2318
1777572143579,2328
1777572143581,2330
1777572143583,2331
1777572143585,2341
1777572143587,2348
1777572143589,2369
1777572143591,2393
1777572143593,2408
1777572143595,2414
1777572143597,2416
1777572143615,2423
1777572143617,2408
1777572143619,2445
1777572143621,2457
1777572143623,2457
1777572143625,2463
1777572143627,2470
1777572143629,2465
1777572143631,2457
1777572143633,2461
1777572143615,2479
1777572143617,2491
1777572143619,2502
1777572143621,2505
1777572143623,2503
1777572143625,2519
1777572143627,2524
1777572143629,2526
1777572143631,2525
1777572143633,2522
1777572143660,2528
1777572143662,2533
1777572143664,2526
1777572143666,2520
1777572143668,2514
1777572143670,2539
1777572143672,2533
1777572143674,2520
1777572143676,2503
1777572143678,2485
1777572143660,2466
1777572143662,2443
1777572143664,2417
1777572143666,2390
1777572143668,2375
1777572143670,2361
1777572143672,2346
1777572143674,2339
1777572143676,2330
1777572143678,2316
1777572143706,2301
1777572143708,2286
1777572143710,2272
1777572143712,2260
1777572143714,2231
1777572143716,2208
1777572143718,2181
1777572143720,2219
1777572143722,2217
1777572143724,2213
1777572143706,2203
1777572143708,2187
1777572143710,2169
1777572143712,2167
1777572143714,2154
1777572143716,2153
1777572143718,2151
1777572143720,2142
1777572143722,2139
1777572143724,2140
1777572143750,2146
1777572143752,2143
1777572143754,2135
1777572143756,2129
1777572143758,2132
1777572143760,2129
1777572143762,2124
1777572143764,2133
1777572143766,2132
1777572143768,2117
1777572143750,2133
1777572143752,2130
1777572143754,2128
1777572143756,2131
1777572143758,2134
1777572143760,2143
1777572143762,2153
1777572143764,2154
1777572143766,2150
1777572143768,2142
1777572143750,2136
1777572143752,2128
1777572143754,2123
1777572143756,2121
1777572143758,2119
1777572143760,2132
1777572143762,2151
1777572143764,2155
1777572143766,2155
1777572143768,2153
1777572143803,2155
1777572143805,2132
1777572143807,2155
1777572143809,2170
1777572143811,2168
1777572143813,2163
1777572143815,2156
1777572143817,2155
1777572143819,2159
1777572143821,2165
1777572143803,2157
1777572143805,2152
1777572143807,2154
1777572143809,2160
1777572143811,2167
1777572143813,2176
1777572143815,2186
1777572143817,2192
1777572143819,2200
1777572143821,2199
1777572143840,2183
1777572143842,2173
1777572143844,2177
1777572143846,2180
1777572143848,2175
1777572143850,2205
1777572143852,2207
1777572143854,2204
1777572143856,2194
1777572143858,2174
1777572143840,2167
1777572143842,2170
1777572143844,2185
1777572143846,2195
1777572143848,2203
1777572143850,2215
1777572143852,2222
1777572143854,2234
1777572143856,2239
1777572143858,2241
1777572143898,2236
1777572143900,2233
1777572143902,2228
1777572143904,2221
1777572143906,2222
1777572143908,2229
1777572143910,2209
1777572143912,2262
1777572143914,2269
1777572143916,2269
1777572143898,2262
1777572143900,2247
1777572143902,2229
1777572143904,2231
1777572143906,2234
1777572143908,2239
1777572143910,2257
1777572143912,2272
1777572143914,2270
1777572143916,2266
1777572143931,2265
1777572143933,2265
1777572143935,2261
1777572143937,2251
1777572143939,2239
1777572143941,2226
1777572143943,2235
1777572143945,2242
1777572143947,2239
1777572143949,2232
1777572143932,2264
1777572143934,2257
1777572143936,2256
1777572143938,2253
1777572143940,2252
1777572143942,2259
1777572143944,2267
1777572143946,2266
1777572143948,2264
1777572143950,2256
1777572143932,2263
1777572143934,2272
1777572143936,2274
1777572143938,2272
1777572143940,2259
1777572143942,2260
1777572143944,2264
1777572143946,2273
1777572143948,2280
1777572143950,2273
1777572143975,2267
1777572143977,2250
1777572143979,2278
1777572143981,2295
1777572143983,2293
1777572143985,2296
1777572143987,2298
1777572143989,2297
1777572143991,2294
1777572143993,2289
1777572144026,2288
1777572144028,2285
1777572144030,2284
1777572144032,2282
1777572144034,2291
1777572144036,2299
1777572144038,2302
1777572144040,2303
1777572144042,2301
1777572144044,2300
1777572144026,2298
1777572144028,2295
1777572144030,2297
1777572144032,2295
1777572144034,2299
1777572144036,2326
1777572144038,2321
1777572144040,2324
1777572144042,2333
1777572144044,2343
1777572144026,2345
1777572144028,2359
1777572144030,2366
1777572144032,2386
1777572144034,2406
1777572144036,2415
1777572144038,2413
1777572144040,2410
1777572144042,2401
1777572144044,2387
1777572144065,2379
1777572144067,2379
1777572144069,2381
1777572144071,2388
1777572144073,2389
1777572144075,2396
1777572144077,2376
1777572144079,2397
1777572144081,2409
1777572144083,2408
1777572144065,2407
1777572144067,2404
1777572144069,2403
1777572144071,2398
1777572144073,2393
1777572144075,2394
1777572144077,2393
1777572144079,2389
