timestamp_ms,ecg_raw
1777323693125,2324
1777323693127,2306
1777323693129,2290
1777323693131,2280
1777323693133,2282
1777323693135,2301
1777323693137,2331
1777323693139,2363
1777323693141,2390
1777323693143,2408
1777323693125,2451
1777323693127,2558
1777323693129,2452
1777323693131,2460
1777323693133,2412
1777323693135,2408
1777323693137,2428
1777323693139,2441
1777323693141,2441
1777323693143,2421
1777323693157,2387
1777323693159,2350
1777323693161,2315
1777323693163,2303
1777323693165,2322
1777323693167,2366
1777323693169,2424
1777323693171,2474
1777323693173,2501
1777323693175,2501
1777323693157,2675
1777323693159,2444
1777323693161,2450
1777323693163,2443
1777323693165,2349
1777323693167,2347
1777323693169,2374
1777323693171,2400
1777323693173,2418
1777323693175,2418
1777323693212,2397
1777323693214,2374
1777323693216,2346
1777323693218,2327
1777323693220,2331
1777323693222,2351
1777323693224,2375
1777323693226,2401
1777323693228,2408
1777323693230,2412
1777323693212,2439
1777323693214,2529
1777323693216,2414
1777323693218,2410
1777323693220,2355
1777323693222,2344
1777323693224,2371
1777323693226,2400
1777323693228,2421
1777323693230,2426
1777323693247,2415
1777323693249,2392
1777323693251,2369
1777323693253,2358
1777323693255,2367
1777323693257,2387
1777323693259,2413
1777323693261,2436
1777323693263,2446
1777323693265,2450
1777323693247,2562
1777323693249,2485
1777323693251,2443
1777323693253,2437
1777323693255,2406
1777323693257,2401
1777323693259,2433
1777323693261,2465
1777323693263,2484
1777323693265,2491
1777323693247,2479
1777323693249,2457
1777323693251,2429
1777323693253,2409
1777323693255,2402
1777323693257,2412
1777323693259,2439
1777323693261,2477
1777323693263,2510
1777323693265,2537
1777323693308,2605
1777323693310,2731
1777323693312,2656
1777323693314,2653
1777323693316,2847
1777323693318,2902
1777323693320,3093
1777323693322,3307
1777323693324,3519
1777323693326,3704
1777323693308,3839
1777323693310,3896
1777323693312,3870
1777323693314,3774
1777323693316,3661
1777323693318,3548
1777323693320,3428
1777323693322,3279
1777323693324,3107
1777323693326,2941
1777323693340,2982
1777323693342,2634
1777323693344,2545
1777323693346,2441
1777323693348,2305
1777323693350,2264
1777323693352,2279
1777323693354,2324
1777323693356,2382
1777323693358,2425
1777323693340,2445
1777323693342,2444
1777323693344,2436
1777323693346,2442
1777323693348,2455
1777323693350,2474
1777323693352,2493
1777323693354,2504
1777323693356,2503
1777323693358,2492
1777323693382,2507
1777323693384,2591
1777323693386,2470
1777323693388,2465
1777323693390,2414
1777323693392,2410
1777323693394,2437
1777323693396,2475
1777323693398,2497
1777323693400,2501
1777323693382,2487
1777323693384,2460
1777323693386,2428
1777323693388,2409
1777323693390,2411
1777323693392,2430
1777323693394,2462
1777323693396,2494
1777323693398,2517
1777323693400,2529
1777323693436,2714
1777323693438,2498
1777323693440,2528
1777323693442,2543
1777323693444,2467
1777323693446,2480
1777323693448,2512
1777323693450,2547
1777323693452,2570
1777323693454,2579
1777323693436,2572
1777323693438,2556
1777323693440,2537
1777323693442,2521
1777323693444,2523
1777323693446,2540
1777323693448,2568
1777323693450,2599
1777323693452,2618
1777323693454,2624
1777323693436,2655
1777323693438,2749
1777323693440,2629
1777323693442,2601
1777323693444,2599
1777323693446,2590
1777323693448,2627
1777323693450,2667
1777323693452,2692
1777323693454,2703
1777323693472,2697
1777323693474,2671
1777323693476,2654
1777323693478,2639
1777323693480,2641
1777323693482,2662
1777323693484,2691
1777323693486,2724
1777323693488,2746
1777323693490,2754
1777323693472,2946
1777323693474,2736
1777323693476,2776
1777323693478,2803
1777323693480,2727
1777323693482,2738
1777323693484,2771
1777323693486,2807
1777323693488,2833
1777323693490,2847
1777323693531,2843
1777323693533,2836
1777323693535,2820
1777323693537,2804
1777323693539,2808
1777323693541,2834
1777323693543,2865
1777323693545,2899
1777323693547,2918
1777323693549,2928
1777323693531,2958
1777323693533,3052
1777323693535,2927
1777323693537,2921
1777323693539,2860
1777323693541,2846
1777323693543,2862
1777323693545,2882
1777323693547,2890
1777323693549,2887
1777323693563,2867
1777323693565,2832
1777323693567,2797
1777323693569,2763
1777323693571,2750
1777323693573,2750
1777323693575,2757
1777323693577,2777
1777323693579,2776
1777323693581,2759
1777323693563,2927
1777323693565,2684
1777323693567,2697
1777323693569,2692
1777323693571,2595
1777323693573,2581
1777323693575,2580
1777323693577,2586
1777323693579,2587
1777323693581,2572
1777323693660,2541
1777323693662,2505
1777323693664,2463
1777323693666,2424
1777323693668,2409
1777323693670,2410
1777323693672,2430
1777323693674,2452
1777323693676,2458
1777323693678,2454
1777323693660,2439
1777323693662,2602
1777323693664,2444
1777323693666,2373
1777323693668,2447
1777323693670,2375
1777323693672,2391
1777323693674,2414
1777323693676,2425
1777323693678,2431
1777323693660,2425
1777323693662,2402
1777323693664,2378
1777323693666,2352
1777323693668,2349
1777323693670,2370
1777323693672,2397
1777323693674,2422
1777323693676,2433
1777323693678,2439
1777323693660,2628
1777323693662,2410
1777323693664,2442
1777323693666,2416
1777323693668,2418
1777323693670,2389
1777323693672,2414
1777323693674,2444
1777323693676,2458
1777323693678,2464
1777323693660,2458
1777323693662,2440
1777323693664,2419
1777323693666,2402
1777323693668,2405
1777323693670,2424
1777323693672,2451
1777323693674,2482
1777323693676,2498
1777323693678,2502
1777323693698,2530
1777323693700,2620
1777323693702,2506
1777323693704,2491
1777323693706,2465
1777323693708,2453
1777323693710,2474
1777323693712,2502
1777323693714,2520
1777323693716,2526
1777323693698,2518
1777323693700,2495
1777323693702,2477
1777323693704,2458
1777323693706,2458
1777323693708,2469
1777323693710,2492
1777323693712,2520
1777323693714,2535
1777323693716,2543
1777323693756,2721
1777323693758,2519
1777323693760,2553
1777323693762,2576
1777323693764,2498
1777323693766,2502
1777323693768,2516
1777323693770,2541
1777323693772,2549
1777323693774,2554
1777323693756,2541
1777323693758,2525
1777323693760,2507
1777323693762,2487
1777323693764,2486
1777323693766,2500
1777323693768,2522
1777323693770,2552
1777323693772,2565
1777323693774,2569
1777323693788,2596
1777323693790,2687
1777323693792,2569
1777323693794,2585
1777323693796,2499
1777323693798,2485
1777323693800,2497
1777323693802,2518
1777323693804,2533
1777323693806,2540
1777323693788,2543
1777323693790,2530
1777323693792,2513
1777323693794,2492
1777323693796,2489
1777323693798,2496
1777323693800,2513
1777323693802,2539
1777323693804,2551
1777323693806,2552
1777323693788,2677
1777323693790,2563
1777323693792,2534
1777323693794,2549
1777323693796,2463
1777323693798,2464
1777323693800,2481
1777323693802,2506
1777323693804,2522
1777323693806,2523
1777323693853,2510
1777323693855,2481
1777323693857,2455
1777323693859,2428
1777323693861,2416
1777323693863,2419
1777323693865,2433
1777323693867,2454
1777323693869,2464
1777323693871,2471
1777323693853,2503
1777323693855,2603
1777323693857,2477
1777323693859,2483
1777323693861,2433
1777323693863,2423
1777323693865,2441
1777323693867,2467
1777323693869,2483
1777323693871,2484
1777323693883,2470
1777323693885,2443
1777323693887,2414
1777323693889,2415
1777323693891,2384
1777323693893,2399
1777323693895,2422
1777323693897,2447
1777323693899,2464
1777323693901,2467
1777323693883,2640
1777323693885,2436
1777323693887,2458
1777323693889,2481
1777323693891,2391
1777323693893,2402
1777323693895,2428
1777323693897,2460
1777323693899,2481
1777323693901,2493
1777323693922,2487
1777323693924,2472
1777323693926,2450
1777323693928,2429
1777323693930,2411
1777323693932,2422
1777323693934,2442
1777323693936,2475
1777323693938,2495
1777323693940,2502
1777323693922,2533
1777323693924,2632
1777323693926,2490
1777323693928,2503
1777323693930,2409
1777323693932,2417
1777323693934,2439
1777323693936,2469
1777323693938,2492
1777323693940,2501
1777323693979,2489
1777323693981,2464
1777323693983,2435
1777323693985,2444
1777323693987,2410
1777323693989,2424
1777323693991,2446
1777323693993,2474
1777323693995,2492
1777323693997,2498
1777323693979,2624
1777323693981,2546
1777323693983,2498
1777323693985,2533
1777323693987,2423
1777323693989,2429
1777323693991,2443
1777323693993,2465
1777323693995,2481
1777323693997,2483
1777323693979,2477
1777323693981,2450
1777323693983,2418
1777323693985,2394
1777323693987,2380
1777323693989,2391
1777323693991,2411
1777323693993,2433
1777323693995,2447
1777323693997,2449
1777323694012,2477
1777323694014,2558
1777323694016,2426
1777323694018,2362
1777323694020,2458
1777323694022,2382
1777323694024,2409
1777323694026,2436
1777323694028,2451
1777323694030,2450
1777323694012,2442
1777323694014,2423
1777323694016,2394
1777323694018,2376
1777323694020,2370
1777323694022,2378
1777323694024,2395
1777323694026,2413
1777323694028,2421
1777323694030,2421
1777323694076,2604
1777323694078,2399
1777323694080,2421
1777323694082,2412
1777323694084,2369
1777323694086,2348
1777323694088,2362
1777323694090,2377
1777323694092,2391
1777323694094,2388
1777323694076,2375
1777323694078,2355
1777323694080,2333
1777323694082,2325
1777323694084,2326
1777323694086,2342
1777323694088,2367
1777323694090,2395
1777323694092,2415
1777323694094,2416
1777323694109,2446
1777323694111,2525
1777323694113,2397
1777323694115,2422
1777323694117,2316
1777323694119,2322
1777323694121,2339
1777323694123,2368
1777323694125,2390
1777323694127,2396
1777323694109,2396
1777323694111,2378
1777323694113,2360
1777323694115,2337
1777323694117,2324
1777323694119,2322
1777323694121,2332
1777323694123,2349
1777323694125,2362
1777323694127,2366
1777323694147,2562
1777323694149,2340
1777323694151,2362
1777323694153,2387
1777323694155,2289
1777323694157,2295
1777323694159,2315
1777323694161,2340
1777323694163,2362
1777323694165,2361
1777323694147,2351
1777323694149,2327
1777323694151,2298
1777323694153,2273
1777323694155,2268
1777323694157,2283
1777323694159,2312
1777323694161,2343
1777323694163,2363
1777323694165,2367
1777323694147,2404
1777323694149,2501
1777323694151,2379
1777323694153,2405
1777323694155,2318
1777323694157,2331
1777323694159,2358
1777323694161,2389
1777323694163,2415
1777323694165,2420
1777323694205,2407
1777323694207,2374
1777323694209,2338
1777323694211,2299
1777323694213,2269
1777323694215,2254
1777323694217,2260
1777323694219,2285
1777323694221,2317
1777323694223,2347
1777323694205,2569
1777323694207,2389
1777323694209,2434
1777323694211,2484
1777323694213,2374
1777323694215,2371
1777323694217,2376
1777323694219,2381
1777323694221,2382
1777323694223,2372
1777323694237,2352
1777323694239,2319
1777323694241,2282
1777323694243,2249
1777323694245,2228
1777323694247,2235
1777323694249,2257
1777323694251,2291
1777323694253,2321
1777323694255,2331
1777323694237,2363
1777323694239,2450
1777323694241,2310
1777323694243,2297
1777323694245,2240
1777323694247,2225
1777323694249,2242
1777323694251,2274
1777323694253,2301
1777323694255,2309
1777323694292,2303
1777323694294,2283
1777323694296,2259
1777323694298,2266
1777323694300,2238
1777323694302,2252
1777323694304,2273
1777323694306,2302
1777323694308,2317
1777323694310,2320
1777323694292,2517
1777323694294,2289
1777323694296,2309
1777323694298,2323
1777323694300,2235
1777323694302,2246
1777323694304,2271
1777323694306,2299
1777323694308,2324
1777323694310,2330
1777323694335,2322
1777323694337,2303
1777323694339,2277
1777323694341,2257
1777323694343,2244
1777323694345,2259
1777323694347,2285
1777323694349,2314
1777323694351,2334
1777323694353,2342
1777323694335,2341
1777323694337,2534
1777323694339,2366
1777323694341,2346
1777323694343,2406
1777323694345,2395
1777323694347,2464
1777323694349,2557
1777323694351,2684
1777323694353,2827
1777323694335,2988
1777323694337,3154
1777323694339,3308
1777323694341,3440
1777323694343,3535
1777323694345,3584
1777323694347,3571
1777323694349,3509
1777323694351,3412
1777323694353,3296
1777323694397,3347
1777323694399,2960
1777323694401,2807
1777323694403,2584
1777323694405,2544
1777323694407,2365
1777323694409,2301
1777323694411,2249
1777323694413,2216
1777323694415,2193
1777323694397,2184
1777323694399,2184
1777323694401,2186
1777323694403,2205
1777323694405,2225
1777323694407,2253
1777323694409,2282
1777323694411,2311
1777323694413,2340
1777323694415,2351
1777323694430,2384
1777323694432,2477
1777323694434,2337
1777323694436,2346
1777323694438,2258
1777323694440,2247
1777323694442,2265
1777323694444,2289
1777323694446,2313
1777323694448,2322
1777323694430,2318
1777323694432,2299
1777323694434,2276
1777323694436,2265
1777323694438,2265
1777323694440,2283
1777323694442,2315
1777323694444,2351
1777323694446,2380
1777323694448,2388
1777323694463,2571
1777323694465,2351
1777323694467,2371
1777323694469,2398
1777323694471,2303
1777323694473,2311
1777323694475,2328
1777323694477,2357
1777323694479,2381
1777323694481,2385
1777323694463,2378
1777323694465,2361
1777323694467,2336
1777323694469,2317
1777323694471,2309
1777323694473,2316
1777323694475,2337
1777323694477,2364
1777323694479,2392
1777323694481,2403
1777323694526,2443
1777323694528,2538
1777323694530,2412
1777323694532,2440
1777323694534,2353
1777323694536,2369
1777323694538,2399
1777323694540,2435
1777323694542,2469
1777323694544,2481
1777323694526,2480
1777323694528,2459
1777323694530,2436
1777323694532,2414
1777323694534,2403
1777323694536,2414
1777323694538,2435
1777323694540,2469
1777323694542,2505
1777323694544,2518
1777323694526,2714
1777323694528,2503
1777323694530,2521
1777323694532,2551
1777323694534,2456
1777323694536,2473
1777323694538,2506
1777323694540,2546
1777323694542,2585
1777323694544,2603
1777323694557,2602
1777323694559,2587
1777323694561,2565
1777323694563,2553
1777323694565,2554
1777323694567,2573
1777323694569,2606
1777323694571,2643
1777323694573,2672
1777323694575,2685
1777323694557,2725
1777323694559,2824
1777323694561,2696
1777323694563,2728
1777323694565,2639
1777323694567,2641
1777323694569,2661
1777323694571,2681
1777323694573,2699
1777323694575,2698
1777323694597,2681
1777323694599,2650
1777323694601,2610
1777323694603,2585
1777323694605,2568
1777323694607,2574
1777323694609,2590
1777323694611,2609
1777323694613,2623
1777323694615,2619
1777323694597,2790
1777323694599,2556
1777323694601,2563
1777323694603,2564
1777323694605,2448
1777323694607,2437
1777323694609,2440
1777323694611,2444
1777323694613,2452
1777323694615,2445
1777323694654,2427
1777323694656,2401
1777323694658,2359
1777323694660,2326
1777323694662,2295
1777323694664,2281
1777323694666,2276
1777323694668,2281
1777323694670,2283
1777323694672,2279
1777323694654,2307
1777323694656,2397
1777323694658,2261
1777323694660,2262
1777323694662,2201
1777323694664,2182
1777323694666,2197
1777323694668,2210
1777323694670,2221
1777323694672,2219
1777323694688,2207
1777323694690,2183
1777323694692,2156
1777323694694,2133
1777323694696,2118
1777323694698,2118
1777323694700,2136
1777323694702,2162
1777323694704,2187
1777323694706,2197
1777323694688,2332
1777323694690,2253
1777323694692,2208
1777323694694,2245
1777323694696,2140
1777323694698,2141
1777323694700,2160
1777323694702,2180
1777323694704,2201
1777323694706,2211
1777323694688,2203
1777323694690,2185
1777323694692,2158
1777323694694,2138
1777323694696,2127
1777323694698,2136
1777323694700,2156
1777323694702,2175
1777323694704,2191
1777323694706,2200
1777323694750,2232
1777323694752,2335
1777323694754,2207
1777323694756,2145
1777323694758,2224
1777323694760,2144
1777323694762,2166
1777323694764,2194
1777323694766,2219
1777323694768,2231
1777323694750,2227
1777323694752,2214
1777323694754,2192
1777323694756,2174
1777323694758,2172
1777323694760,2179
1777323694762,2196
1777323694764,2214
1777323694766,2229
1777323694768,2237
1777323694781,2422
1777323694783,2210
1777323694785,2230
1777323694787,2246
1777323694789,2152
1777323694791,2160
1777323694793,2181
1777323694795,2207
1777323694797,2230
1777323694799,2242
1777323694781,2237
1777323694783,2222
1777323694785,2197
1777323694787,2177
1777323694789,2170
1777323694791,2176
1777323694793,2196
1777323694795,2223
1777323694797,2247
1777323694799,2263
1777323694822,2260
1777323694824,2434
1777323694826,2262
1777323694828,2181
1777323694830,2256
1777323694832,2177
1777323694834,2196
1777323694836,2227
1777323694838,2246
1777323694840,2254
1777323694822,2241
1777323694824,2212
1777323694826,2181
1777323694828,2157
1777323694830,2150
1777323694832,2162
1777323694834,2194
1777323694836,2229
1777323694838,2256
1777323694840,2268
1777323694876,2463
1777323694878,2249
1777323694880,2281
1777323694882,2289
1777323694884,2210
1777323694886,2212
1777323694888,2233
1777323694890,2258
1777323694892,2277
1777323694894,2277
1777323694876,2268
1777323694878,2244
1777323694880,2215
1777323694882,2196
1777323694884,2201
1777323694886,2219
1777323694888,2249
1777323694890,2276
1777323694892,2294
1777323694894,2293
1777323694876,2315
1777323694878,2409
1777323694880,2267
1777323694882,2279
1777323694884,2189
1777323694886,2185
1777323694888,2206
1777323694890,2229
1777323694892,2250
1777323694894,2254
1777323694912,2247
1777323694914,2229
1777323694916,2219
1777323694918,2203
1777323694920,2195
1777323694922,2198
1777323694924,2217
1777323694926,2242
1777323694928,2264
1777323694930,2270
1777323694912,2463
1777323694914,2257
1777323694916,2285
1777323694918,2310
1777323694920,2213
1777323694922,2220
1777323694924,2238
1777323694926,2259
1777323694928,2279
1777323694930,2289
1777323694971,2281
1777323694973,2267
1777323694975,2237
1777323694977,2208
1777323694979,2198
1777323694981,2208
1777323694983,2229
1777323694985,2255
1777323694987,2267
1777323694989,2272
1777323694971,2312
1777323694973,2397
1777323694975,2249
1777323694977,2265
1777323694979,2168
1777323694981,2170
1777323694983,2195
1777323694985,2227
1777323694987,2257
1777323694989,2276
1777323695003,2272
1777323695005,2249
1777323695007,2215
1777323695009,2184
1777323695011,2166
1777323695013,2165
1777323695015,2175
1777323695017,2201
1777323695019,2219
1777323695021,2232
1777323695003,2422
1777323695005,2211
1777323695007,2246
1777323695009,2262
1777323695011,2162
1777323695013,2166
1777323695015,2186
1777323695017,2209
1777323695019,2224
1777323695021,2226
1777323695047,2210
1777323695049,2187
1777323695051,2155
1777323695053,2133
1777323695055,2125
1777323695057,2134
1777323695059,2161
1777323695061,2188
1777323695063,2214
1777323695065,2223
1777323695047,2223
1777323695049,2394
1777323695051,2234
1777323695053,2161
1777323695055,2237
1777323695057,2148
1777323695059,2170
1777323695061,2194
1777323695063,2214
1777323695065,2226
1777323695047,2217
1777323695049,2199
1777323695051,2174
1777323695053,2149
1777323695055,2138
1777323695057,2141
1777323695059,2162
1777323695061,2191
1777323695063,2217
1777323695065,2230
1777323695100,2425
1777323695102,2201
1777323695104,2234
1777323695106,2160
1777323695108,2255
1777323695110,2167
1777323695112,2189
1777323695114,2214
1777323695116,2236
1777323695118,2249
1777323695100,2236
1777323695102,2222
1777323695104,2193
1777323695106,2167
1777323695108,2160
1777323695110,2164
1777323695112,2180
1777323695114,2200
1777323695116,2220
1777323695118,2239
1777323695137,2278
1777323695139,2374
1777323695141,2249
1777323695143,2267
1777323695145,2195
1777323695147,2194
1777323695149,2219
1777323695151,2250
1777323695153,2271
1777323695155,2282
1777323695137,2270
1777323695139,2247
1777323695141,2216
1777323695143,2183
1777323695145,2155
1777323695147,2139
1777323695149,2141
1777323695151,2148
1777323695153,2154
1777323695155,2162
1777323695196,2368
1777323695198,2165
1777323695200,2213
1777323695202,2244
1777323695204,2155
1777323695206,2161
1777323695208,2178
1777323695210,2204
1777323695212,2218
1777323695214,2218
1777323695196,2190
1777323695198,2149
1777323695200,2094
1777323695202,2034
1777323695204,1992
1777323695206,1959
1777323695208,1944
1777323695210,1938
1777323695212,1931
1777323695214,1924
1777323695228,1936
1777323695230,2014
1777323695232,1843
1777323695234,1831
1777323695236,1703
1777323695238,1671
1777323695240,1667
1777323695242,1676
1777323695244,1685
1777323695246,1686
1777323695228,1671
1777323695230,1642
1777323695232,1608
1777323695234,1572
1777323695236,1553
1777323695238,1544
1777323695240,1553
1777323695242,1573
1777323695244,1588
1777323695246,1597
1777323695228,1805
1777323695230,1567
1777323695232,1595
1777323695234,1606
1777323695236,1505
1777323695238,1492
1777323695240,1504
1777323695242,1523
1777323695244,1540
1777323695246,1548
1777323695278,1534
1777323695280,1506
1777323695282,1470
1777323695284,1434
1777323695286,1402
1777323695288,1388
1777323695290,1393
1777323695292,1406
1777323695294,1422
1777323695296,1434
1777323695278,1474
1777323695280,1598
1777323695282,1460
1777323695284,1498
1777323695286,1425
1777323695288,1443
1777323695290,1487
1777323695292,1540
1777323695294,1605
1777323695296,1693
1777323695333,1801
1777323695335,1934
1777323695337,2092
1777323695339,2257
1777323695341,2414
1777323695343,2551
1777323695345,2652
1777323695347,2693
1777323695349,2661
1777323695351,2575
1777323695333,2642
1777323695335,2308
1777323695337,2193
1777323695339,2037
1777323695341,1769
1777323695343,1630
1777323695345,1539
1777323695347,1484
1777323695349,1439
1777323695351,1392
1777323695362,1345
1777323695364,1320
1777323695366,1309
1777323695368,1313
1777323695370,1339
1777323695372,1372
1777323695374,1411
1777323695376,1456
1777323695378,1486
1777323695380,1510
1777323695362,1567
1777323695364,1693
1777323695366,1570
1777323695368,1582
1777323695370,1491
1777323695372,1482
1777323695374,1491
1777323695376,1514
1777323695378,1540
1777323695380,1561
1777323695422,1563
1777323695424,1558
1777323695426,1542
1777323695428,1535
1777323695430,1539
1777323695432,1555
1777323695434,1585
1777323695436,1621
1777323695438,1653
1777323695440,1678
1777323695422,1823
1777323695424,1745
1777323695426,1720
1777323695428,1746
1777323695430,1658
1777323695432,1678
1777323695434,1712
1777323695436,1753
1777323695438,1795
1777323695440,1822
1777323695422,1827
1777323695424,1821
1777323695426,1799
1777323695428,1784
1777323695430,1778
1777323695432,1790
1777323695434,1814
1777323695436,1853
1777323695438,1888
1777323695440,1919
1777323695452,1972
1777323695454,2093
1777323695456,1976
1777323695458,1908
1777323695460,2007
1777323695462,1928
1777323695464,1949
1777323695466,1982
1777323695468,2012
1777323695470,2037
1777323695452,2045
1777323695454,2038
1777323695456,2022
1777323695458,2003
1777323695460,2008
1777323695462,2025
1777323695464,2057
1777323695466,2100
1777323695468,2134
1777323695470,2156
1777323695513,2366
1777323695515,2160
1777323695517,2207
1777323695519,2245
1777323695521,2161
1777323695523,2193
1777323695525,2235
1777323695527,2284
1777323695529,2329
1777323695531,2358
1777323695513,2363
1777323695515,2353
1777323695517,2337
1777323695519,2328
1777323695521,2333
1777323695523,2356
1777323695525,2394
1777323695527,2438
1777323695529,2476
1777323695531,2506
1777323695587,2556
1777323695589,2663
1777323695591,2540
1777323695593,2562
1777323695595,2484
1777323695597,2490
1777323695599,2507
1777323695601,2542
1777323695603,2573
1777323695605,2599
1777323695587,2610
1777323695589,2600
1777323695591,2583
1777323695593,2564
1777323695595,2556
1777323695597,2561
1777323695599,2578
1777323695601,2606
1777323695603,2631
1777323695605,2647
1777323695587,2841
1777323695589,2628
1777323695591,2649
1777323695593,2647
1777323695595,2543
1777323695597,2538
1777323695599,2543
1777323695601,2554
1777323695603,2560
1777323695605,2560
1777323695590,2547
1777323695592,2525
1777323695594,2493
1777323695596,2459
1777323695598,2442
1777323695600,2447
1777323695602,2464
1777323695604,2490
1777323695606,2507
1777323695608,2514
1777323695590,2545
1777323695592,2631
1777323695594,2497
1777323695596,2502
1777323695598,2412
1777323695600,2410
1777323695602,2423
1777323695604,2445
1777323695606,2463
1777323695608,2471
1777323695641,2463
1777323695643,2438
1777323695645,2411
1777323695647,2392
1777323695649,2387
1777323695651,2394
1777323695653,2413
1777323695655,2437
1777323695657,2460
1777323695659,2471
1777323695641,2664
1777323695643,2449
1777323695645,2480
1777323695647,2486
1777323695649,2418
1777323695651,2425
1777323695653,2448
1777323695655,2480
1777323695657,2510
1777323695659,2529
1777323695677,2535
1777323695679,2522
1777323695681,2502
1777323695683,2482
1777323695685,2470
1777323695687,2477
1777323695689,2493
1777323695691,2520
1777323695693,2544
1777323695695,2563
1777323695677,2613
1777323695679,2715
1777323695681,2587
1777323695683,2612
1777323695685,2525
1777323695687,2525
1777323695689,2544
1777323695691,2570
1777323695693,2595
1777323695695,2609
1777323695738,2607
1777323695740,2587
1777323695742,2562
1777323695744,2544
1777323695746,2531
1777323695748,2539
1777323695750,2560
1777323695752,2598
1777323695754,2627
1777323695756,2649
1777323695738,2844
1777323695740,2640
1777323695742,2670
1777323695744,2683
1777323695746,2589
1777323695748,2597
1777323695750,2613
1777323695752,2640
1777323695754,2667
1777323695756,2683
1777323695769,2682
1777323695771,2669
1777323695773,2644
1777323695775,2620
1777323695777,2609
1777323695779,2619
1777323695781,2641
1777323695783,2667
1777323695785,2687
1777323695787,2698
1777323695769,2695
1777323695771,2864
1777323695773,2708
1777323695775,2661
1777323695777,2691
1777323695779,2627
1777323695781,2637
1777323695783,2660
1777323695785,2683
1777323695787,2698
1777323695769,2704
1777323695771,2684
1777323695773,2657
1777323695775,2626
1777323695777,2614
1777323695779,2615
1777323695781,2628
1777323695783,2653
1777323695785,2677
1777323695787,2692
1777323695812,2836
1777323695814,2739
1777323695816,2720
1777323695818,2644
1777323695820,2721
1777323695822,2635
1777323695824,2648
1777323695826,2669
1777323695828,2689
1777323695830,2699
1777323695812,2696
1777323695814,2674
1777323695816,2641
1777323695818,2611
1777323695820,2597
1777323695822,2602
1777323695824,2616
1777323695826,2641
1777323695828,2662
1777323695830,2675
1777323695866,2717
1777323695868,2811
1777323695870,2673
1777323695872,2643
1777323695874,2620
1777323695876,2586
1777323695878,2601
1777323695880,2622
1777323695882,2642
1777323695884,2653
1777323695866,2651
1777323695868,2632
1777323695870,2614
1777323695872,2595
1777323695874,2585
1777323695876,2593
1777323695878,2609
1777323695880,2633
1777323695882,2652
1777323695884,2664
1777323695902,2858
1777323695904,2660
1777323695906,2696
1777323695908,2708
1777323695910,2612
1777323695912,2617
1777323695914,2624
1777323695916,2654
1777323695918,2669
1777323695920,2678
1777323695902,2675
1777323695904,2656
1777323695906,2629
1777323695908,2604
1777323695910,2590
1777323695912,2594
1777323695914,2604
1777323695916,2625
1777323695918,2641
1777323695920,2652
1777323695962,2691
1777323695964,2778
1777323695966,2655
1777323695968,2680
1777323695970,2568
1777323695972,2570
1777323695974,2576
1777323695976,2594
1777323695978,2613
1777323695980,2620
1777323695962,2620
1777323695964,2599
1777323695966,2570
1777323695968,2540
1777323695970,2521
1777323695972,2521
1777323695974,2531
1777323695976,2553
1777323695978,2576
1777323695980,2588
1777323695962,2779
1777323695964,2565
1777323695966,2584
1777323695968,2593
1777323695970,2492
1777323695972,2497
1777323695974,2514
1777323695976,2541
1777323695978,2565
1777323695980,2579
1777323695993,2567
1777323695995,2537
1777323695997,2506
1777323695999,2481
1777323696001,2471
1777323696003,2481
1777323696005,2498
1777323696007,2527
1777323696009,2552
1777323696011,2568
1777323695993,2609
1777323695995,2699
1777323695997,2572
1777323695999,2596
1777323696001,2489
1777323696003,2492
1777323696005,2506
1777323696007,2528
1777323696009,2550
1777323696011,2556
1777323696037,2557
1777323696039,2536
1777323696041,2508
1777323696043,2484
1777323696045,2462
1777323696047,2467
1777323696049,2475
1777323696051,2496
1777323696053,2517
1777323696055,2527
1777323696037,2719
1777323696039,2511
1777323696041,2530
1777323696043,2540
1777323696045,2439
1777323696047,2442
1777323696049,2460
1777323696051,2488
1777323696053,2513
1777323696055,2531
1777323696089,2533
1777323696091,2516
1777323696093,2489
1777323696095,2460
1777323696097,2443
1777323696099,2448
1777323696101,2460
1777323696103,2488
1777323696105,2508
1777323696107,2524
1777323696089,2566
1777323696091,2663
1777323696093,2528
1777323696095,2540
1777323696097,2444
1777323696099,2446
1777323696101,2454
1777323696103,2474
1777323696105,2496
1777323696107,2509
1777323696127,2509
1777323696129,2494
1777323696131,2469
1777323696133,2446
1777323696135,2431
1777323696137,2444
1777323696139,2462
1777323696141,2486
1777323696143,2510
1777323696145,2520
1777323696127,2639
1777323696129,2564
1777323696131,2518
1777323696133,2549
1777323696135,2445
1777323696137,2461
1777323696139,2488
1777323696141,2523
1777323696143,2559
1777323696145,2580
1777323696127,2583
1777323696129,2569
1777323696131,2542
1777323696133,2512
1777323696135,2487
1777323696137,2476
1777323696139,2472
1777323696141,2475
1777323696143,2483
1777323696145,2494
1777323696186,2543
1777323696188,2652
1777323696190,2551
1777323696192,2499
1777323696194,2583
1777323696196,2493
1777323696198,2499
1777323696200,2503
1777323696202,2505
1777323696204,2501
1777323696186,2485
1777323696188,2459
1777323696190,2424
1777323696192,2390
1777323696194,2368
1777323696196,2356
1777323696198,2359
1777323696200,2379
1777323696202,2403
1777323696204,2427
1777323696217,2626
1777323696219,2434
1777323696221,2458
1777323696223,2466
1777323696225,2347
1777323696227,2350
1777323696229,2366
1777323696231,2388
1777323696233,2412
1777323696235,2426
1777323696217,2424
1777323696219,2410
1777323696221,2376
1777323696223,2345
1777323696225,2330
1777323696227,2334
1777323696229,2353
1777323696231,2377
1777323696233,2404
1777323696235,2421
1777323696262,2466
1777323696264,2559
1777323696266,2442
1777323696268,2442
1777323696270,2370
1777323696272,2362
1777323696274,2368
1777323696276,2394
1777323696278,2413
1777323696280,2426
1777323696262,2428
1777323696264,2414
1777323696266,2387
1777323696268,2359
1777323696270,2340
1777323696272,2335
1777323696274,2347
1777323696276,2363
1777323696278,2380
1777323696280,2389
1777323696314,2571
1777323696316,2371
1777323696318,2402
1777323696320,2424
1777323696322,2346
1777323696324,2373
1777323696326,2418
1777323696328,2477
1777323696330,2540
1777323696332,2611
1777323696314,2703
1777323696316,2814
1777323696318,2941
1777323696320,3096
1777323696322,3267
1777323696324,3441
1777323696326,3604
1777323696328,3725
1777323696330,3783
1777323696332,3759
1777323696314,3711
1777323696316,3692
1777323696318,3392
1777323696320,3229
1777323696322,2928
1777323696324,2757
1777323696326,2629
1777323696328,2528
1777323696330,2445
1777323696332,2359
1777323696366,2279
1777323696368,2205
1777323696370,2165
1777323696372,2158
1777323696374,2191
1777323696376,2250
1777323696378,2312
1777323696380,2365
1777323696382,2415
1777323696384,2446
1777323696366,2648
1777323696368,2446
1777323696370,2455
1777323696372,2464
1777323696374,2339
1777323696376,2323
1777323696378,2324
1777323696380,2334
1777323696382,2356
1777323696384,2374
1777323696410,2375
1777323696412,2367
1777323696414,2338
1777323696416,2319
1777323696418,2301
1777323696420,2308
1777323696422,2327
1777323696424,2354
1777323696426,2374
1777323696428,2386
1777323696410,2421
1777323696412,2504
1777323696414,2381
1777323696416,2400
1777323696418,2301
1777323696420,2310
1777323696422,2334
1777323696424,2361
1777323696426,2395
1777323696428,2416
1777323696442,2425
1777323696444,2419
1777323696446,2397
1777323696448,2375
1777323696450,2356
1777323696452,2355
1777323696454,2362
1777323696456,2385
1777323696458,2403
1777323696460,2419
1777323696442,2616
1777323696444,2416
1777323696446,2440
1777323696448,2462
1777323696450,2376
1777323696452,2383
1777323696454,2404
1777323696456,2427
1777323696458,2452
1777323696460,2472
1777323696487,2478
1777323696489,2471
1777323696491,2447
1777323696493,2425
1777323696495,2411
1777323696497,2414
1777323696499,2434
1777323696501,2460
1777323696503,2483
1777323696505,2505
1777323696487,2519
1777323696489,2705
1777323696491,2547
1777323696493,2520
1777323696495,2516
1777323696497,2470
1777323696499,2485
1777323696501,2506
1777323696503,2536
1777323696505,2558
1777323696538,2571
1777323696540,2571
1777323696542,2556
1777323696544,2543
1777323696546,2537
1777323696548,2545
1777323696550,2568
1777323696552,2593
1777323696554,2619
1777323696556,2638
1777323696538,2830
1777323696540,2642
1777323696542,2674
1777323696544,2604
1777323696546,2677
1777323696548,2585
1777323696550,2594
1777323696552,2609
1777323696554,2632
1777323696556,2651
1777323696538,2655
1777323696540,2646
1777323696542,2618
1777323696544,2593
1777323696546,2574
1777323696548,2574
1777323696550,2592
1777323696552,2610
1777323696554,2628
1777323696556,2635
1777323696577,2665
1777323696579,2753
1777323696581,2606
1777323696583,2600
1777323696585,2493
1777323696587,2472
1777323696589,2467
1777323696591,2460
1777323696593,2462
1777323696595,2462
1777323696577,2450
1777323696579,2425
1777323696581,2384
1777323696583,2344
1777323696585,2312
1777323696587,2292
1777323696589,2289
1777323696591,2285
1777323696593,2291
1777323696595,2289
1777323696633,2466
1777323696635,2259
1777323696637,2278
1777323696639,2281
1777323696641,2176
1777323696643,2171
1777323696645,2179
1777323696647,2199
1777323696649,2214
1777323696651,2222
1777323696633,2217
1777323696635,2202
1777323696637,2168
1777323696639,2134
1777323696641,2114
1777323696643,2108
1777323696645,2121
1777323696647,2138
1777323696649,2156
1777323696651,2170
1777323696667,2211
1777323696669,2317
1777323696671,2188
1777323696673,2195
1777323696675,2122
1777323696677,2111
1777323696679,2131
1777323696681,2152
1777323696683,2174
1777323696685,2187
1777323696667,2191
1777323696669,2177
1777323696671,2148
1777323696673,2122
1777323696675,2103
1777323696677,2103
1777323696679,2121
1777323696681,2142
1777323696683,2163
1777323696685,2183
1777323696667,2375
1777323696669,2177
1777323696671,2198
1777323696673,2223
1777323696675,2122
1777323696677,2123
1777323696679,2142
1777323696681,2163
1777323696683,2191
1777323696685,2205
1777323696729,2203
1777323696731,2189
1777323696733,2164
1777323696735,2137
1777323696737,2123
1777323696739,2127
1777323696741,2148
1777323696743,2174
1777323696745,2196
1777323696747,2211
1777323696729,2246
1777323696731,2345
1777323696733,2212
1777323696735,2228
1777323696737,2121
1777323696739,2116
1777323696741,2128
1777323696743,2148
1777323696745,2177
1777323696747,2198
1777323696761,2205
1777323696763,2200
1777323696765,2179
1777323696767,2161
1777323696769,2151
1777323696771,2143
1777323696773,2158
1777323696775,2177
1777323696777,2199
1777323696779,2216
1777323696761,2405
1777323696763,2203
1777323696765,2224
1777323696767,2242
1777323696769,2131
1777323696771,2125
1777323696773,2141
1777323696775,2161
1777323696777,2183
1777323696779,2205
1777323696802,2206
1777323696804,2203
1777323696806,2173
1777323696808,2150
1777323696810,2137
1777323696812,2140
1777323696814,2157
1777323696816,2182
1777323696818,2200
1777323696820,2214
1777323696802,2221
1777323696804,2420
1777323696806,2260
1777323696808,2174
1777323696810,2259
1777323696812,2162
1777323696814,2179
1777323696816,2201
1777323696818,2221
1777323696820,2232
1777323696857,2232
1777323696859,2219
1777323696861,2192
1777323696863,2167
1777323696865,2154
1777323696867,2157
1777323696869,2178
1777323696871,2203
1777323696873,2227
1777323696875,2243
1777323696857,2373
1777323696859,2297
1777323696861,2252
1777323696863,2238
1777323696865,2175
1777323696867,2149
1777323696869,2169
1777323696871,2197
1777323696873,2224
1777323696875,2240
1777323696857,2234
1777323696859,2223
1777323696861,2199
1777323696863,2172
1777323696865,2158
1777323696867,2159
1777323696869,2178
1777323696871,2203
1777323696873,2226
1777323696875,2246
1777323696895,2290
1777323696897,2396
1777323696899,2267
1777323696901,2186
1777323696903,2265
1777323696905,2169
1777323696907,2186
1777323696909,2214
1777323696911,2244
1777323696913,2266
1777323696895,2269
1777323696897,2260
1777323696899,2237
1777323696901,2212
1777323696903,2199
1777323696905,2196
1777323696907,2205
1777323696909,2225
1777323696911,2248
1777323696913,2270
1777323696953,2473
1777323696955,2272
1777323696957,2300
1777323696959,2286
1777323696961,2215
1777323696963,2199
1777323696965,2215
1777323696967,2246
1777323696969,2278
1777323696971,2303
1777323696953,2307
1777323696955,2296
1777323696957,2270
1777323696959,2242
1777323696961,2222
1777323696963,2218
1777323696965,2226
1777323696967,2246
1777323696969,2265
1777323696971,2288
1777323696985,2331
1777323696987,2436
1777323696989,2323
1777323696991,2311
1777323696993,2236
1777323696995,2211
1777323696997,2217
1777323696999,2241
1777323697001,2261
1777323697003,2278
1777323696985,2279
1777323696987,2266
1777323696989,2239
1777323696991,2210
1777323696993,2187
1777323696995,2185
1777323696997,2198
1777323696999,2222
1777323697001,2237
1777323697003,2247
1777323697027,2431
1777323697029,2209
1777323697031,2229
1777323697033,2228
1777323697035,2122
1777323697037,2104
1777323697039,2104
1777323697041,2111
1777323697043,2122
1777323697045,2126
1777323697027,2112
1777323697029,2083
1777323697031,2038
1777323697033,1987
1777323697035,1951
1777323697037,1927
1777323697039,1919
1777323697041,1929
1777323697043,1940
1777323697045,1946
1777323697027,1980
1777323697029,2075
1777323697031,1938
1777323697033,1895
1777323697035,1838
1777323697037,1783
1777323697039,1785
1777323697041,1803
1777323697043,1823
1777323697045,1829
1777323697082,1816
1777323697084,1783
1777323697086,1748
1777323697088,1704
1777323697090,1670
1777323697092,1656
1777323697094,1655
1777323697096,1660
1777323697098,1667
1777323697100,1663
1777323697082,1862
1777323697084,1619
1777323697086,1633
1777323697088,1630
1777323697090,1508
1777323697092,1483
1777323697094,1478
1777323697096,1484
1777323697098,1490
1777323697100,1498
1777323697117,1491
1777323697119,1482
1777323697121,1458
1777323697123,1426
1777323697125,1410
1777323697127,1403
1777323697129,1403
1777323697131,1405
1777323697133,1406
1777323697135,1402
1777323697117,1428
1777323697119,1532
1777323697121,1393
1777323697123,1375
1777323697125,1303
1777323697127,1278
1777323697129,1287
1777323697131,1300
1777323697133,1305
1777323697135,1299
1777323697165,1279
1777323697167,1240
1777323697169,1190
1777323697171,1129
1777323697173,1089
1777323697175,1070
1777323697177,1076
1777323697179,1112
1777323697181,1150
1777323697183,1191
1777323697165,1429
1777323697167,1214
1777323697169,1257
1777323697171,1258
1777323697173,1138
1777323697175,1104
1777323697177,1098
1777323697179,1108
1777323697181,1122
1777323697183,1129
1777323697216,1116
1777323697218,1091
1777323697220,1054
1777323697222,1006
1777323697224,987
1777323697226,988
1777323697228,1009
1777323697230,1038
1777323697232,1061
1777323697234,1074
1777323697216,1073
1777323697218,1274
1777323697220,1084
1777323697222,1004
1777323697224,1081
1777323697226,987
1777323697228,1001
1777323697230,1026
1777323697232,1051
1777323697234,1071
1777323697216,1079
1777323697218,1071
1777323697220,1056
1777323697222,1032
1777323697224,1027
1777323697226,1040
1777323697228,1073
1777323697230,1111
1777323697232,1142
1777323697234,1170
1777323697255,1400
1777323697257,1175
1777323697259,1223
1777323697261,1141
1777323697263,1232
1777323697265,1137
1777323697267,1154
1777323697269,1181
1777323697271,1206
1777323697273,1227
1777323697255,1231
1777323697257,1232
1777323697259,1220
1777323697261,1193
1777323697263,1190
1777323697265,1193
1777323697267,1210
1777323697269,1245
1777323697271,1282
1777323697273,1329
1777323697303,1412
1777323697305,1563
1777323697307,1479
1777323697309,1490
1777323697311,1516
1777323697313,1551
1777323697315,1672
1777323697317,1832
1777323697319,2020
1777323697321,2221
1777323697303,2402
1777323697305,2541
1777323697307,2630
1777323697309,2645
1777323697311,2600
1777323697313,2511
1777323697315,2410
1777323697317,2321
1777323697319,2224
1777323697321,2106
1777323697342,2160
1777323697344,1797
1777323697346,1715
1777323697348,1625
1777323697350,1442
1777323697352,1363
1777323697354,1321
1777323697356,1333
1777323697358,1364
1777323697360,1407
1777323697342,1440
1777323697344,1458
1777323697346,1457
1777323697348,1443
1777323697350,1425
1777323697352,1426
1777323697354,1450
1777323697356,1496
1777323697358,1539
1777323697360,1582
1777323697400,1645
1777323697402,1771
1777323697404,1653
1777323697406,1633
1777323697408,1566
1777323697410,1550
1777323697412,1580
1777323697414,1631
1777323697416,1684
1777323697418,1732
1777323697400,1765
1777323697402,1774
1777323697404,1770
1777323697406,1749
1777323697408,1737
1777323697410,1739
1777323697412,1752
1777323697414,1777
1777323697416,1804
1777323697418,1835
1777323697400,2057
1777323697402,1859
1777323697404,1911
1777323697406,1931
1777323697408,1840
1777323697410,1842
1777323697412,1866
1777323697414,1903
1777323697416,1933
1777323697418,1962
1777323697432,1973
1777323697434,1974
1777323697436,1969
1777323697438,1953
1777323697440,1946
1777323697442,1949
1777323697444,1962
1777323697446,1987
1777323697448,2011
1777323697450,2038
1777323697432,2093
1777323697434,2217
1777323697436,2111
1777323697438,2094
1777323697440,2076
1777323697442,2060
1777323697444,2089
1777323697446,2127
1777323697448,2159
1777323697450,2184
1777323697477,2192
1777323697479,2187
1777323697481,2173
1777323697483,2152
1777323697485,2146
1777323697487,2166
1777323697489,2195
1777323697491,2240
1777323697493,2278
1777323697495,2309
1777323697477,2517
1777323697479,2324
1777323697481,2368
1777323697483,2391
1777323697485,2316
1777323697487,2332
1777323697489,2367
1777323697491,2417
1777323697493,2468
1777323697495,2513
1777323697526,2542
1777323697528,2555
1777323697530,2553
1777323697532,2542
1777323697534,2547
1777323697536,2569
1777323697538,2603
1777323697540,2655
1777323697542,2697
1777323697544,2740
1777323697526,2803
1777323697528,2922
1777323697530,2815
1777323697532,2799
1777323697534,2748
1777323697536,2738
1777323697538,2762
1777323697540,2801
1777323697542,2837
1777323697544,2869
1777323697567,2889
1777323697569,2888
1777323697571,2877
1777323697573,2857
1777323697575,2836
1777323697577,2834
1777323697579,2843
1777323697581,2863
1777323697583,2874
1777323697585,2884
1777323697567,3023
1777323697569,2941
1777323697571,2900
1777323697573,2887
1777323697575,2795
1777323697577,2784
1777323697579,2794
1777323697581,2810
1777323697583,2824
1777323697585,2839
1777323697567,2835
1777323697569,2817
1777323697571,2785
1777323697573,2744
1777323697575,2719
1777323697577,2716
1777323697579,2729
1777323697581,2755
1777323697583,2773
1777323697585,2790
1777323697625,2831
1777323697627,2925
1777323697629,2802
1777323697631,2718
1777323697633,2794
1777323697635,2710
1777323697637,2731
1777323697639,2758
1777323697641,2786
1777323697643,2806
1777323697625,2810
1777323697627,2796
1777323697629,2771
1777323697631,2746
1777323697633,2726
1777323697635,2728
1777323697637,2750
1777323697639,2788
1777323697641,2817
1777323697643,2838
1777323697658,3041
1777323697660,2828
1777323697662,2860
1777323697664,2825
1777323697666,2823
1777323697668,2771
1777323697670,2782
1777323697672,2807
1777323697674,2833
1777323697676,2853
1777323697658,2858
1777323697660,2846
1777323697662,2813
1777323697664,2773
1777323697666,2741
1777323697668,2724
1777323697670,2722
1777323697672,2740
1777323697674,2759
1777323697676,2783
1777323697702,2834
1777323697704,2946
1777323697706,2830
1777323697708,2811
1777323697710,2736
1777323697712,2706
1777323697714,2710
1777323697716,2735
1777323697718,2765
1777323697720,2786
1777323697702,2795
1777323697704,2787
1777323697706,2765
1777323697708,2741
1777323697710,2723
1777323697712,2725
1777323697714,2743
1777323697716,2773
1777323697718,2798
1777323697720,2818
1777323697755,3023
1777323697757,2821
1777323697759,2859
1777323697761,2871
1777323697763,2773
1777323697765,2765
1777323697767,2777
1777323697769,2801
1777323697771,2824
1777323697773,2834
1777323697755,2840
1777323697757,2830
1777323697759,2808
1777323697761,2783
1777323697763,2768
1777323697765,2766
1777323697767,2781
1777323697769,2808
1777323697771,2835
1777323697773,2854
1777323697755,2896
1777323697757,3005
1777323697759,2882
1777323697761,2860
1777323697763,2789
1777323697765,2758
1777323697767,2762
1777323697769,2776
1777323697771,2797
1777323697773,2811
1777323697792,2811
1777323697794,2792
1777323697796,2764
1777323697798,2731
1777323697800,2704
1777323697802,2697
1777323697804,2702
1777323697806,2718
1777323697808,2735
1777323697810,2740
1777323697792,2893
1777323697794,2769
1777323697796,2761
1777323697798,2761
1777323697800,2651
1777323697802,2632
1777323697804,2637
1777323697806,2657
1777323697808,2679
1777323697810,2687
1777323697850,2686
1777323697852,2681
1777323697854,2663
1777323697856,2634
1777323697858,2613
1777323697860,2615
1777323697862,2623
1777323697864,2645
1777323697866,2666
1777323697868,2683
1777323697850,2727
1777323697852,2834
1777323697854,2704
1777323697856,2692
1777323697858,2628
1777323697860,2601
1777323697862,2607
1777323697864,2629
1777323697866,2648
1777323697868,2662
1777323697882,2664
1777323697884,2651
1777323697886,2626
1777323697888,2599
1777323697890,2574
1777323697892,2567
1777323697894,2571
1777323697896,2599
1777323697898,2622
1777323697900,2640
1777323697882,2844
1777323697884,2639
1777323697886,2666
1777323697888,2663
1777323697890,2556
1777323697892,2546
1777323697894,2552
1777323697896,2572
1777323697898,2595
1777323697900,2605
1777323697927,2603
1777323697929,2592
1777323697931,2571
1777323697933,2549
1777323697935,2527
1777323697937,2524
1777323697939,2532
1777323697941,2549
1777323697943,2566
1777323697945,2581
1777323697927,2588
1777323697929,2772
1777323697931,2606
1777323697933,2551
1777323697935,2562
1777323697937,2497
1777323697939,2510
1777323697941,2532
1777323697943,2557
1777323697945,2570
1777323697927,2571
1777323697929,2557
1777323697931,2532
1777323697933,2509
1777323697935,2490
1777323697937,2492
1777323697939,2508
1777323697941,2533
1777323697943,2556
1777323697945,2575
1777323697974,2779
1777323697976,2573
1777323697978,2603
1777323697980,2520
1777323697982,2591
1777323697984,2493
1777323697986,2509
1777323697988,2536
1777323697990,2568
1777323697992,2594
1777323697974,2599
1777323697976,2592
1777323697978,2571
1777323697980,2545
1777323697982,2524
1777323697984,2523
1777323697986,2531
1777323697988,2553
1777323697990,2580
1777323697992,2602
1777323698017,2653
1777323698019,2762
1777323698021,2632
1777323698023,2645
1777323698025,2551
1777323698027,2536
1777323698029,2545
1777323698031,2565
1777323698033,2588
1777323698035,2602
1777323698017,2611
1777323698019,2610
1777323698021,2596
1777323698023,2574
1777323698025,2556
1777323698027,2558
1777323698029,2571
1777323698031,2598
1777323698033,2625
1777323698035,2645
1777323698070,2843
1777323698072,2649
1777323698074,2680
1777323698076,2695
1777323698078,2592
1777323698080,2587
1777323698082,2602
1777323698084,2637
1777323698086,2675
1777323698088,2704
1777323698070,2723
1777323698072,2730
1777323698074,2717
1777323698076,2700
1777323698078,2685
1777323698080,2687
1777323698082,2702
1777323698084,2725
1777323698086,2747
1777323698088,2757
1777323698107,2792
1777323698109,2883
1777323698111,2735
1777323698113,2736
1777323698115,2619
1777323698117,2607
1777323698119,2631
1777323698121,2674
1777323698123,2729
1777323698125,2764
1777323698107,2785
1777323698109,2777
1777323698111,2745
1777323698113,2703
1777323698115,2656
1777323698117,2633
1777323698119,2624
1777323698121,2638
1777323698123,2664
1777323698125,2670
1777323698107,2861
1777323698109,2651
1777323698111,2675
1777323698113,2682
1777323698115,2571
1777323698117,2569
1777323698119,2578
1777323698121,2596
1777323698123,2617
1777323698125,2622
1777323698166,2612
1777323698168,2585
1777323698170,2549
1777323698172,2521
1777323698174,2496
1777323698176,2496
1777323698178,2513
1777323698180,2539
1777323698182,2568
1777323698184,2585
1777323698166,2632
1777323698168,2739
1777323698170,2606
1777323698172,2619
1777323698174,2515
1777323698176,2500
1777323698178,2508
1777323698180,2528
1777323698182,2559
1777323698184,2582
1777323698198,2594
1777323698200,2591
1777323698202,2578
1777323698204,2557
1777323698206,2529
1777323698208,2523
1777323698210,2534
1777323698212,2559
1777323698214,2595
1777323698216,2615
1777323698198,2822
1777323698200,2617
1777323698202,2648
1777323698204,2657
1777323698206,2552
1777323698208,2552
1777323698210,2567
1777323698212,2597
1777323698214,2636
1777323698216,2669
1777323698242,2686
1777323698244,2697
1777323698246,2701
1777323698248,2714
1777323698250,2732
1777323698252,2794
1777323698254,2899
1777323698256,3058
1777323698258,3258
1777323698260,3472
1777323698242,3731
1777323698244,4012
1777323698246,4001
1777323698248,4037
1777323698250,3980
1777323698252,3873
1777323698254,3752
1777323698256,3634
1777323698258,3505
1777323698260,3341
1777323698299,3154
1777323698301,2969
1777323698303,2796
1777323698305,2656
1777323698307,2537
1777323698309,2455
1777323698311,2412
1777323698313,2413
1777323698315,2440
1777323698317,2481
1777323698299,2647
1777323698301,2616
1777323698303,2607
1777323698305,2635
1777323698307,2547
1777323698309,2558
1777323698311,2579
1777323698313,2604
1777323698315,2627
1777323698317,2632
1777323698299,2622
1777323698301,2605
1777323698303,2573
1777323698305,2543
1777323698307,2513
1777323698309,2504
1777323698311,2511
1777323698313,2529
1777323698315,2551
1777323698317,2568
1777323698332,2612
1777323698334,2723
1777323698336,2604
1777323698338,2524
1777323698340,2587
1777323698342,2503
1777323698344,2512
1777323698346,2532
1777323698348,2553
1777323698350,2564
1777323698332,2564
1777323698334,2552
1777323698336,2525
1777323698338,2494
1777323698340,2464
1777323698342,2452
1777323698344,2460
1777323698346,2477
1777323698348,2499
1777323698350,2519
1777323698390,2704
1777323698392,2506
1777323698394,2530
1777323698396,2541
1777323698398,2419
1777323698400,2413
1777323698402,2422
1777323698404,2439
1777323698406,2459
1777323698408,2473
1777323698390,2473
1777323698392,2462
1777323698394,2438
1777323698396,2414
1777323698398,2398
1777323698400,2400
1777323698402,2418
1777323698404,2440
1777323698406,2462
1777323698408,2476
1777323698422,2519
1777323698424,2623
1777323698426,2488
1777323698428,2495
1777323698430,2405
1777323698432,2394
1777323698434,2401
1777323698436,2426
1777323698438,2447
1777323698440,2463
1777323698422,2465
1777323698424,2456
1777323698426,2438
1777323698428,2419
1777323698430,2404
1777323698432,2409
1777323698434,2429
1777323698436,2458
1777323698438,2489
1777323698440,2513
1777323698467,2709
1777323698469,2515
1777323698471,2554
1777323698473,2570
1777323698475,2479
1777323698477,2467
1777323698479,2480
1777323698481,2506
1777323698483,2538
1777323698485,2568
1777323698467,2583
1777323698469,2579
1777323698471,2559
1777323698473,2536
1777323698475,2516
1777323698477,2507
1777323698479,2513
1777323698481,2528
1777323698483,2544
1777323698485,2562
1777323698467,2598
1777323698469,2692
1777323698471,2550
1777323698473,2552
1777323698475,2437
1777323698477,2408
1777323698479,2401
1777323698481,2404
1777323698483,2408
1777323698485,2409
1777323698557,2394
1777323698559,2367
1777323698561,2333
1777323698563,2290
1777323698565,2251
1777323698567,2224
1777323698569,2215
1777323698571,2214
1777323698573,2212
1777323698575,2210
1777323698557,2395
1777323698559,2176
1777323698561,2192
1777323698563,2189
1777323698565,2062
1777323698567,2041
1777323698569,2041
1777323698571,2056
1777323698573,2073
1777323698575,2089
1777323698557,2082
1777323698559,2061
1777323698561,2025
1777323698563,1979
1777323698565,1951
1777323698567,1937
1777323698569,1945
1777323698571,1966
1777323698573,1983
1777323698575,2005
1777323698559,2048
1777323698561,2151
1777323698563,2022
1777323698565,2033
1777323698567,1927
1777323698569,1910
1777323698571,1921
1777323698573,1944
1777323698575,1966
1777323698577,1984
1777323698614,1984
1777323698616,1970
1777323698618,1946
1777323698620,1916
1777323698622,1893
1777323698624,1882
1777323698626,1883
1777323698628,1904
1777323698630,1931
1777323698632,1954
1777323698614,2172
1777323698616,1960
1777323698618,1996
1777323698620,2015
1777323698622,1907
1777323698624,1905
1777323698626,1922
1777323698628,1946
1777323698630,1973
1777323698632,1991
1777323698647,1988
1777323698649,1979
1777323698651,1958
1777323698653,1935
1777323698655,1913
1777323698657,1905
1777323698659,1918
1777323698661,1940
1777323698663,1972
1777323698665,1993
1777323698647,2001
1777323698649,2202
1777323698651,2034
1777323698653,1973
1777323698655,2027
1777323698657,1941
1777323698659,1952
1777323698661,1975
1777323698663,2004
1777323698665,2026
1777323698647,2033
1777323698649,2027
1777323698651,2008
1777323698653,1979
1777323698655,1956
1777323698657,1949
1777323698659,1965
1777323698661,1991
1777323698663,2019
1777323698665,2042
1777323698692,2257
1777323698694,2044
1777323698696,2080
1777323698698,1994
1777323698700,2070
1777323698702,1952
1777323698704,1956
1777323698706,1972
1777323698708,1993
1777323698710,2014
1777323698692,2008
1777323698694,1998
1777323698696,1965
1777323698698,1928
1777323698700,1897
1777323698702,1872
1777323698704,1870
1777323698706,1881
1777323698708,1891
1777323698710,1896
1777323698742,1929
1777323698744,2033
1777323698746,1893
1777323698748,1893
1777323698750,1802
1777323698752,1777
1777323698754,1782
1777323698756,1804
1777323698758,1826
1777323698760,1842
1777323698742,1836
1777323698744,1822
1777323698746,1790
1777323698748,1757
1777323698750,1732
1777323698752,1716
1777323698754,1725
1777323698756,1745
1777323698758,1769
1777323698760,1791
1777323698782,2010
1777323698784,1784
1777323698786,1811
1777323698788,1816
1777323698790,1689
1777323698792,1673
1777323698794,1670
1777323698796,1681
1777323698798,1692
1777323698800,1707
1777323698838,1708
1777323698840,1702
1777323698842,1678
1777323698844,1647
1777323698846,1622
1777323698848,1608
1777323698850,1613
1777323698852,1633
1777323698854,1657
1777323698856,1681
1777323698838,1689
1777323698840,1883
1777323698842,1723
1777323698844,1661
1777323698846,1683
1777323698848,1598
1777323698850,1606
1777323698852,1626
1777323698854,1650
1777323698856,1671
1777323698838,1678
1777323698840,1671
1777323698842,1653
1777323698844,1626
1777323698846,1611
1777323698848,1601
1777323698850,1611
1777323698852,1636
1777323698854,1667
1777323698856,1701
1777323698838,1913
1777323698840,1716
1777323698842,1759
1777323698844,1779
1777323698846,1658
1777323698848,1647
1777323698850,1662
1777323698852,1687
1777323698854,1717
1777323698856,1745
1777323698872,1748
1777323698874,1739
1777323698876,1719
1777323698878,1697
1777323698880,1683
1777323698882,1678
1777323698884,1690
1777323698886,1714
1777323698888,1738
1777323698890,1767
1777323698872,1816
1777323698874,1938
1777323698876,1804
1777323698878,1831
1777323698880,1719
1777323698882,1709
1777323698884,1722
1777323698886,1747
1777323698888,1776
1777323698890,1806
1777323698917,1816
1777323698919,1807
1777323698921,1786
1777323698923,1759
1777323698925,1733
1777323698927,1726
1777323698929,1738
1777323698931,1766
1777323698933,1797
1777323698935,1830
1777323698917,2051
1777323698919,1836
1777323698921,1866
1777323698923,1886
1777323698925,1779
1777323698927,1773
1777323698929,1783
1777323698931,1806
1777323698933,1835
1777323698935,1863
1777323698966,1867
1777323698968,1871
1777323698970,1861
1777323698972,1846
1777323698974,1843
1777323698976,1846
1777323698978,1862
1777323698980,1897
1777323698982,1922
1777323698984,1946
1777323698966,1990
1777323698968,2099
1777323698970,1971
1777323698972,1998
1777323698974,1895
1777323698976,1893
1777323698978,1908
1777323698980,1930
1777323698982,1955
1777323698984,1980
1777323699007,1988
1777323699009,1988
1777323699011,1973
1777323699013,1952
1777323699015,1935
1777323699017,1928
1777323699019,1940
1777323699021,1965
1777323699023,1985
1777323699025,2007
1777323699007,2150
1777323699009,2067
1777323699011,2035
1777323699013,2059
1777323699015,1942
1777323699017,1930
1777323699019,1942
1777323699021,1967
1777323699023,1996
1777323699025,2021
1777323699007,2021
1777323699009,2016
1777323699011,1991
1777323699013,1964
1777323699015,1942
1777323699017,1934
1777323699019,1947
1777323699021,1968
1777323699023,1990
1777323699025,2013
1777323699062,2061
1777323699064,2165
1777323699066,2042
1777323699068,1975
1777323699070,2062
1777323699072,1955
1777323699074,1964
1777323699076,1986
1777323699078,2012
1777323699080,2037
1777323699062,2046
1777323699064,2044
1777323699066,2024
1777323699068,1991
1777323699070,1977
1777323699072,1963
1777323699074,1972
1777323699076,1996
1777323699078,2019
1777323699080,2043
1777323699097,2263
1777323699099,2044
1777323699101,2076
1777323699103,2088
1777323699105,1982
1777323699107,1980
1777323699109,1994
1777323699111,2025
1777323699113,2057
1777323699115,2088
1777323699097,2093
1777323699099,2088
1777323699101,2069
1777323699103,2047
1777323699105,2030
1777323699107,2029
1777323699109,2047
1777323699111,2079
1777323699113,2114
1777323699115,2148
1777323699142,2203
1777323699144,2324
1777323699146,2196
1777323699148,2202
1777323699150,2103
1777323699152,2092
1777323699154,2088
1777323699156,2105
1777323699158,2115
1777323699160,2115
1777323699142,2098
1777323699144,2074
1777323699146,2060
1777323699148,2060
1777323699150,2069
1777323699152,2089
1777323699154,2117
1777323699156,2150
1777323699158,2176
1777323699160,2194
1777323699190,2387
1777323699192,2167
1777323699194,2186
1777323699196,2190
1777323699198,2071
1777323699200,2058
1777323699202,2060
1777323699204,2080
1777323699206,2101
1777323699208,2117
1777323699190,2126
1777323699192,2122
1777323699194,2102
1777323699196,2075
1777323699198,2051
1777323699200,2034
1777323699202,2033
1777323699204,2057
1777323699206,2080
1777323699208,2109
1777323699190,2170
1777323699192,2280
1777323699194,2159
1777323699196,2177
1777323699198,2079
1777323699200,2079
1777323699202,2092
1777323699204,2118
1777323699206,2150
1777323699208,2181
1777323699232,2197
1777323699234,2191
1777323699236,2180
1777323699238,2160
1777323699240,2149
1777323699242,2154
1777323699244,2170
1777323699246,2206
1777323699248,2243
1777323699250,2274
1777323699232,2471
1777323699234,2282
1777323699236,2306
1777323699238,2321
1777323699240,2216
1777323699242,2214
1777323699244,2224
1777323699246,2249
1777323699248,2280
1777323699250,2313
1777323699287,2326
1777323699289,2322
1777323699291,2309
1777323699293,2285
1777323699295,2265
1777323699297,2265
1777323699299,2279
1777323699301,2325
1777323699303,2376
1777323699305,2425
1777323699287,2503
1777323699289,2646
1777323699291,2552
1777323699293,2624
1777323699295,2627
1777323699297,2762
1777323699299,2944
1777323699301,3155
1777323699303,3368
1777323699305,3552
1777323699322,3681
1777323699324,3724
1777323699326,3677
1777323699328,3573
1777323699330,3434
1777323699332,3299
1777323699334,3158
1777323699336,3009
1777323699338,2855
1777323699340,2715
1777323699322,2786
1777323699324,2474
1777323699326,2405
1777323699328,2342
1777323699330,2182
1777323699332,2158
1777323699334,2178
1777323699336,2232
1777323699338,2303
1777323699340,2366
1777323699367,2400
1777323699369,2408
1777323699371,2392
1777323699373,2378
1777323699375,2377
1777323699377,2387
1777323699379,2401
1777323699381,2421
1777323699383,2435
1777323699385,2444
1777323699367,2449
1777323699369,2625
1777323699371,2460
1777323699373,2432
1777323699375,2431
1777323699377,2378
1777323699379,2391
1777323699381,2414
1777323699383,2438
1777323699385,2461
1777323699367,2475
1777323699369,2474
1777323699371,2460
1777323699373,2436
1777323699375,2422
1777323699377,2420
1777323699379,2433
1777323699381,2461
1777323699383,2491
1777323699385,2518
1777323699415,2727
1777323699417,2521
1777323699419,2550
1777323699421,2484
1777323699423,2557
1777323699425,2467
1777323699427,2480
1777323699429,2507
1777323699431,2537
1777323699433,2562
1777323699415,2576
1777323699417,2579
1777323699419,2565
1777323699421,2546
1777323699423,2534
1777323699425,2531
1777323699427,2539
1777323699429,2562
1777323699431,2587
1777323699433,2616
1777323699457,2676
1777323699459,2799
1777323699461,2684
1777323699463,2661
1777323699465,2655
1777323699467,2601
1777323699469,2605
1777323699471,2625
1777323699473,2647
1777323699475,2670
1777323699457,2683
1777323699459,2682
1777323699461,2669
1777323699463,2649
1777323699465,2636
1777323699467,2642
1777323699469,2660
1777323699471,2692
1777323699473,2726
1777323699475,2752
1777323699510,2949
1777323699512,2751
1777323699514,2784
1777323699516,2805
1777323699518,2701
1777323699520,2709
1777323699522,2726
1777323699524,2764
1777323699526,2801
1777323699528,2831
1777323699510,2844
1777323699512,2839
1777323699514,2819
1777323699516,2796
1777323699518,2780
1777323699520,2781
1777323699522,2795
1777323699524,2821
1777323699526,2849
1777323699528,2878
1777323699548,2930
1777323699550,3047
1777323699552,2917
1777323699554,2938
1777323699556,2828
1777323699558,2824
1777323699560,2824
1777323699562,2837
1777323699564,2852
1777323699566,2855
1777323699548,2850
1777323699550,2825
1777323699552,2795
1777323699554,2757
1777323699556,2723
1777323699558,2705
1777323699560,2698
1777323699562,2701
1777323699564,2709
1777323699566,2711
1777323699548,2884
1777323699550,2670
1777323699552,2674
1777323699554,2671
1777323699556,2541
1777323699558,2522
1777323699560,2514
1777323699562,2524
1777323699564,2537
1777323699566,2549
1777323699608,2548
1777323699610,2531
1777323699612,2499
1777323699614,2462
1777323699616,2431
1777323699618,2421
1777323699620,2416
1777323699622,2427
1777323699624,2442
1777323699626,2451
1777323699608,2489
1777323699610,2590
1777323699612,2451
1777323699614,2454
1777323699616,2338
1777323699618,2327
1777323699620,2330
1777323699622,2348
1777323699624,2369
1777323699626,2387
1777323699639,2396
1777323699641,2395
1777323699643,2382
1777323699645,2363
1777323699647,2342
1777323699649,2342
1777323699651,2347
1777323699653,2370
1777323699655,2395
1777323699657,2419
1777323699639,2630
1777323699641,2427
1777323699643,2457
1777323699645,2473
1777323699647,2372
1777323699649,2369
1777323699651,2379
1777323699653,2402
1777323699655,2426
1777323699657,2450
1777323699682,2462
1777323699684,2454
1777323699686,2431
1777323699688,2404
1777323699690,2384
1777323699692,2379
1777323699694,2383
1777323699696,2403
1777323699698,2419
1777323699700,2440
1777323699682,2486
1777323699684,2595
1777323699686,2472
1777323699688,2494
1777323699690,2397
1777323699692,2406
1777323699694,2425
1777323699696,2456
1777323699698,2492
1777323699700,2520
1777323699734,2538
1777323699736,2529
1777323699738,2510
1777323699740,2487
1777323699742,2464
1777323699744,2460
1777323699746,2466
1777323699748,2483
1777323699750,2505
1777323699752,2523
1777323699734,2670
1777323699736,2586
1777323699738,2551
1777323699740,2569
1777323699742,2456
1777323699744,2454
1777323699746,2464
1777323699748,2487
1777323699750,2518
1777323699752,2547
1777323699734,2570
1777323699736,2570
1777323699738,2553
1777323699740,2527
1777323699742,2507
1777323699744,2504
1777323699746,2509
1777323699748,2533
1777323699750,2563
1777323699752,2586
1777323699772,2633
1777323699774,2735
1777323699776,2602
1777323699778,2528
1777323699780,2588
1777323699782,2505
1777323699784,2509
1777323699786,2533
1777323699788,2559
1777323699790,2579
1777323699772,2587
1777323699774,2567
1777323699776,2535
1777323699778,2495
1777323699780,2472
1777323699782,2473
1777323699784,2489
1777323699786,2520
1777323699788,2552
1777323699790,2578
1777323699830,2742
1777323699832,2615
1777323699834,2595
1777323699836,2604
1777323699838,2498
1777323699840,2495
1777323699842,2497
1777323699844,2514
1777323699846,2540
1777323699848,2559
1777323699831,2562
1777323699833,2545
1777323699835,2514
1777323699837,2483
1777323699839,2461
1777323699841,2466
1777323699843,2484
1777323699845,2510
1777323699847,2534
1777323699849,2552
1777323699907,2635
1777323699909,2635
1777323699911,2533
1777323699913,2580
1777323699915,2466
1777323699917,2454
1777323699919,2450
1777323699921,2468
1777323699923,2489
1777323699925,2510
1777323699907,2520
1777323699909,2509
1777323699911,2489
1777323699913,2462
1777323699915,2443
1777323699917,2435
1777323699919,2441
1777323699921,2462
1777323699923,2485
1777323699925,2508
1777323699907,2705
1777323699909,2511
1777323699911,2514
1777323699913,2548
1777323699915,2440
1777323699917,2437
1777323699919,2449
1777323699921,2468
1777323699923,2488
1777323699925,2502
1777323699909,2504
1777323699911,2496
1777323699913,2467
1777323699915,2434
1777323699917,2410
1777323699919,2401
1777323699921,2412
1777323699923,2434
1777323699925,2460
1777323699927,2481
1777323699909,2572
1777323699911,2577
1777323699913,2469
1777323699915,2508
1777323699917,2400
1777323699919,2397
1777323699921,2404
1777323699923,2420
1777323699925,2438
1777323699927,2446
1777323699958,2440
1777323699960,2422
1777323699962,2399
1777323699964,2386
1777323699966,2371
1777323699968,2371
1777323699970,2383
1777323699972,2403
1777323699974,2423
1777323699976,2444
1777323699959,2642
1777323699961,2436
1777323699963,2431
1777323699965,2455
1777323699967,2353
1777323699969,2349
1777323699971,2360
1777323699973,2383
1777323699975,2405
1777323699977,2423
1777323699997,2421
1777323699999,2407
1777323700001,2375
1777323700003,2348
1777323700005,2328
1777323700007,2329
1777323700009,2332
1777323700011,2349
1777323700013,2373
1777323700015,2396
1777323699997,2489
1777323699999,2503
1777323700001,2398
1777323700003,2438
1777323700005,2327
1777323700007,2320
1777323700009,2331
1777323700011,2352
1777323700013,2379
1777323700015,2397
1777323700055,2396
1777323700057,2384
1777323700059,2360
1777323700061,2329
1777323700063,2304
1777323700065,2293
1777323700067,2297
1777323700069,2315
1777323700071,2339
1777323700073,2356
1777323700055,2553
1777323700057,2356
1777323700059,2364
1777323700061,2414
1777323700063,2311
1777323700065,2307
1777323700067,2315
1777323700069,2330
1777323700071,2348
1777323700073,2361
1777323700088,2362
1777323700090,2360
1777323700092,2337
1777323700094,2309
1777323700096,2285
1777323700098,2272
1777323700100,2281
1777323700102,2303
1777323700104,2330
1777323700106,2351
1777323700088,2355
1777323700090,2533
1777323700092,2343
1777323700094,2369
1777323700096,2274
1777323700098,2261
1777323700100,2276
1777323700102,2303
1777323700104,2337
1777323700106,2359
1777323700088,2366
1777323700090,2353
1777323700092,2326
1777323700094,2296
1777323700096,2277
1777323700098,2270
1777323700100,2281
1777323700102,2302
1777323700104,2330
1777323700106,2356
1777323700132,2551
1777323700134,2356
1777323700136,2363
1777323700138,2314
1777323700140,2379
1777323700142,2295
1777323700144,2316
1777323700146,2344
1777323700148,2377
1777323700150,2405
1777323700132,2412
1777323700134,2407
1777323700136,2372
1777323700138,2326
1777323700140,2285
1777323700142,2263
1777323700144,2265
1777323700146,2290
1777323700148,2326
1777323700150,2365
1777323700183,2478
1777323700185,2512
1777323700187,2411
1777323700189,2448
1777323700191,2338
1777323700193,2322
1777323700195,2315
1777323700197,2321
1777323700199,2334
1777323700201,2346
1777323700183,2346
1777323700185,2328
1777323700187,2298
1777323700189,2265
1777323700191,2243
1777323700193,2237
1777323700195,2249
1777323700197,2276
1777323700199,2310
1777323700201,2335
1777323700222,2527
1777323700224,2328
1777323700226,2318
1777323700228,2335
1777323700230,2230
1777323700232,2218
1777323700234,2221
1777323700236,2243
1777323700238,2269
1777323700240,2292
1777323700222,2298
1777323700224,2295
1777323700226,2277
1777323700228,2256
1777323700230,2247
1777323700232,2253
1777323700234,2271
1777323700236,2293
1777323700238,2317
1777323700240,2329
1777323700297,2425
1777323700299,2436
1777323700301,2326
1777323700303,2378
1777323700305,2269
1777323700307,2270
1777323700309,2287
1777323700311,2305
1777323700313,2328
1777323700315,2347
1777323700297,2359
1777323700299,2356
1777323700301,2336
1777323700303,2311
1777323700305,2293
1777323700307,2285
1777323700309,2295
1777323700311,2311
1777323700313,2329
1777323700315,2349
1777323700297,2539
1777323700299,2363
1777323700301,2386
1777323700303,2454
1777323700305,2374
1777323700307,2408
1777323700309,2458
1777323700311,2523
1777323700313,2629
1777323700315,2765
1777323700331,2921
1777323700333,3099
1777323700335,3268
1777323700337,3419
1777323700339,3537
1777323700341,3607
1777323700343,3618
1777323700345,3551
1777323700347,3449
1777323700349,3323
1777323700331,3280
1777323700333,3135
1777323700335,2853
1777323700337,2717
1777323700339,2469
1777323700341,2362
1777323700343,2298
1777323700345,2252
1777323700347,2220
1777323700349,2200
1777323700370,2189
1777323700372,2188
1777323700374,2186
1777323700376,2186
1777323700378,2192
1777323700380,2206
1777323700382,2228
1777323700384,2248
1777323700386,2279
1777323700388,2322
1777323700370,2534
1777323700372,2347
1777323700374,2350
1777323700376,2370
1777323700378,2264
1777323700380,2248
1777323700382,2254
1777323700384,2269
1777323700386,2295
1777323700388,2322
1777323700410,2333
1777323700412,2335
1777323700414,2317
1777323700416,2292
1777323700418,2274
1777323700420,2274
1777323700422,2289
1777323700424,2318
1777323700426,2346
1777323700428,2372
1777323700410,2463
1777323700412,2477
1777323700414,2370
1777323700416,2412
1777323700418,2305
1777323700420,2304
1777323700422,2325
1777323700424,2349
1777323700426,2373
1777323700428,2397
1777323700448,2406
1777323700450,2403
1777323700452,2383
1777323700454,2357
1777323700456,2341
1777323700458,2339
1777323700460,2355
1777323700462,2376
1777323700464,2402
1777323700466,2428
1777323700448,2585
1777323700450,2486
1777323700452,2442
1777323700454,2478
1777323700456,2369
1777323700458,2367
1777323700460,2384
1777323700462,2406
1777323700464,2433
1777323700466,2456
1777323700448,2461
1777323700450,2461
1777323700452,2437
1777323700454,2412
1777323700456,2397
1777323700458,2396
1777323700460,2413
1777323700462,2435
1777323700464,2459
1777323700466,2483
1777323700507,2574
1777323700509,2595
1777323700511,2506
1777323700513,2474
1777323700515,2549
1777323700517,2464
1777323700519,2482
1777323700521,2501
1777323700523,2528
1777323700525,2554
1777323700507,2565
1777323700509,2566
1777323700511,2547
1777323700513,2532
1777323700515,2526
1777323700517,2535
1777323700519,2558
1777323700521,2589
1777323700523,2619
1777323700525,2644
1777323700539,2843
1777323700541,2655
1777323700543,2664
1777323700545,2710
1777323700547,2601
1777323700549,2605
1777323700551,2621
1777323700553,2645
1777323700555,2674
1777323700557,2693
1777323700539,2696
1777323700541,2692
1777323700543,2668
1777323700545,2642
1777323700547,2622
1777323700549,2611
1777323700551,2617
1777323700553,2629
1777323700555,2644
1777323700557,2649
1777323700582,2728
1777323700584,2724
1777323700586,2594
1777323700588,2620
1777323700590,2500
1777323700592,2483
1777323700594,2480
1777323700596,2487
1777323700598,2490
1777323700600,2487
1777323700582,2471
1777323700584,2441
1777323700586,2394
1777323700588,2348
1777323700590,2314
1777323700592,2300
1777323700594,2302
1777323700596,2313
1777323700598,2321
1777323700600,2329
1777323700635,2507
1777323700637,2301
1777323700639,2289
1777323700641,2303
1777323700643,2191
1777323700645,2174
1777323700647,2177
1777323700649,2191
1777323700651,2213
1777323700653,2227
1777323700635,2235
1777323700637,2225
1777323700639,2198
1777323700641,2165
1777323700643,2145
1777323700645,2140
1777323700647,2149
1777323700649,2165
1777323700651,2187
1777323700653,2203
1777323700635,2298
1777323700637,2311
1777323700639,2196
1777323700641,2251
1777323700643,2140
1777323700645,2140
1777323700647,2150
1777323700649,2168
1777323700651,2187
1777323700653,2209
1777323700672,2219
1777323700674,2209
1777323700676,2187
1777323700678,2157
1777323700680,2139
1777323700682,2137
1777323700684,2151
1777323700686,2176
1777323700688,2194
1777323700690,2215
1777323700672,2413
1777323700674,2218
1777323700676,2223
1777323700678,2266
1777323700680,2157
1777323700682,2153
1777323700684,2169
1777323700686,2196
1777323700688,2226
1777323700690,2253
1777323700730,2260
1777323700732,2257
1777323700734,2237
1777323700736,2207
1777323700738,2184
1777323700740,2184
1777323700742,2196
1777323700744,2218
1777323700746,2239
1777323700748,2264
1777323700731,2360
1777323700733,2382
1777323700735,2287
1777323700737,2331
1777323700739,2220
1777323700741,2211
1777323700743,2221
1777323700745,2241
1777323700747,2265
1777323700749,2288
1777323700763,2293
1777323700765,2282
1777323700767,2256
1777323700769,2227
1777323700771,2207
1777323700773,2205
1777323700775,2219
1777323700777,2245
1777323700779,2267
1777323700781,2290
1777323700763,2490
1777323700765,2283
1777323700767,2282
1777323700769,2319
1777323700771,2221
1777323700773,2220
1777323700775,2236
1777323700777,2257
1777323700779,2280
1777323700781,2298
1777323700826,2301
1777323700828,2298
1777323700830,2276
1777323700832,2243
1777323700834,2220
1777323700836,2212
1777323700838,2223
1777323700840,2244
1777323700842,2270
1777323700844,2289
1777323700826,2298
1777323700828,2383
1777323700830,2392
1777323700832,2244
1777323700834,2298
1777323700836,2207
1777323700838,2215
1777323700840,2235
1777323700842,2255
1777323700844,2270
1777323700826,2269
1777323700828,2252
1777323700830,2224
1777323700832,2196
1777323700834,2181
1777323700836,2183
1777323700838,2199
1777323700840,2228
1777323700842,2251
1777323700844,2274
1777323700857,2474
1777323700859,2268
1777323700861,2288
1777323700863,2223
1777323700865,2296
1777323700867,2209
1777323700869,2227
1777323700871,2256
1777323700873,2285
1777323700875,2307
1777323700857,2309
1777323700859,2302
1777323700861,2282
1777323700863,2256
1777323700865,2238
1777323700867,2238
1777323700869,2251
1777323700871,2276
1777323700873,2299
1777323700875,2317
1777323700897,2364
1777323700899,2470
1777323700901,2324
1777323700903,2356
1777323700905,2253
1777323700907,2250
1777323700909,2261
1777323700911,2279
1777323700913,2297
1777323700915,2314
1777323700897,2318
1777323700899,2309
1777323700901,2290
1777323700903,2262
1777323700905,2245
1777323700907,2244
1777323700909,2261
1777323700911,2288
1777323700913,2313
1777323700915,2341
1777323700954,2545
1777323700956,2331
1777323700958,2348
1777323700960,2362
1777323700962,2260
1777323700964,2259
1777323700966,2272
1777323700968,2299
1777323700970,2323
1777323700972,2340
1777323700954,2343
1777323700956,2333
1777323700958,2306
1777323700960,2276
1777323700962,2251
1777323700964,2246
1777323700966,2257
1777323700968,2285
1777323700970,2309
1777323700972,2332
1777323700988,2389
1777323700990,2485
1777323700992,2357
1777323700994,2376
1777323700996,2272
1777323700998,2267
1777323701000,2276
1777323701002,2302
1777323701004,2325
1777323701006,2345
1777323700988,2355
1777323700990,2352
1777323700992,2341
1777323700994,2320
1777323700996,2310
1777323700998,2309
1777323701000,2321
1777323701002,2347
1777323701004,2370
1777323701006,2392
1777323700988,2593
1777323700990,2385
1777323700992,2399
1777323700994,2408
1777323700996,2307
1777323700998,2305
1777323701000,2317
1777323701002,2340
1777323701004,2358
1777323701006,2374
1777323701050,2377
1777323701052,2367
1777323701054,2343
1777323701056,2308
1777323701058,2286
1777323701060,2285
1777323701062,2300
1777323701064,2323
1777323701066,2343
1777323701068,2358
1777323701050,2400
1777323701052,2500
1777323701054,2376
1777323701056,2385
1777323701058,2301
1777323701060,2291
1777323701062,2300
1777323701064,2322
1777323701066,2340
1777323701068,2358
1777323701082,2360
1777323701084,2346
1777323701086,2324
1777323701088,2289
1777323701090,2266
1777323701092,2265
1777323701094,2275
1777323701096,2304
1777323701098,2325
1777323701100,2350
1777323701082,2552
1777323701084,2355
1777323701086,2375
1777323701088,2389
1777323701090,2283
1777323701092,2277
1777323701094,2292
1777323701096,2323
1777323701098,2352
1777323701100,2378
1777323701122,2387
1777323701124,2382
1777323701126,2361
1777323701128,2330
1777323701130,2304
1777323701132,2302
1777323701134,2311
1777323701136,2338
1777323701138,2360
1777323701140,2379
1777323701122,2426
1777323701124,2533
1777323701126,2403
1777323701128,2416
1777323701130,2313
1777323701132,2311
1777323701134,2323
1777323701136,2348
1777323701138,2367
1777323701140,2387
1777323701177,2394
1777323701179,2390
1777323701181,2374
1777323701183,2344
1777323701185,2329
1777323701187,2326
1777323701189,2338
1777323701191,2365
1777323701193,2389
1777323701195,2412
1777323701177,2557
1777323701179,2468
1777323701181,2427
1777323701183,2445
1777323701185,2339
1777323701187,2334
1777323701189,2348
1777323701191,2377
1777323701193,2403
1777323701195,2423
1777323701177,2424
1777323701179,2414
1777323701181,2388
1777323701183,2358
1777323701185,2343
1777323701187,2349
1777323701189,2374
1777323701191,2412
1777323701193,2443
1777323701195,2473
1777323701212,2527
1777323701214,2647
1777323701216,2521
1777323701218,2466
1777323701220,2544
1777323701222,2456
1777323701224,2466
1777323701226,2489
1777323701228,2503
1777323701230,2512
1777323701212,2503
1777323701214,2472
1777323701216,2433
1777323701218,2393
1777323701220,2379
1777323701222,2391
1777323701224,2425
1777323701226,2466
1777323701228,2502
1777323701230,2520
1777323701273,2720
1777323701275,2508
1777323701277,2518
1777323701279,2524
1777323701281,2395
1777323701283,2378
1777323701285,2375
1777323701287,2390
1777323701289,2404
1777323701291,2414
1777323701273,2408
1777323701275,2390
1777323701277,2364
1777323701279,2336
1777323701281,2317
1777323701283,2319
1777323701285,2332
1777323701287,2353
1777323701289,2367
1777323701291,2374
1777323701326,2413
1777323701328,2510
1777323701330,2373
1777323701332,2413
1777323701334,2301
1777323701336,2299
1777323701338,2314
1777323701340,2344
1777323701342,2368
1777323701344,2389
1777323701326,2395
1777323701328,2383
1777323701330,2357
1777323701332,2324
1777323701334,2305
1777323701336,2307
1777323701338,2323
1777323701340,2350
1777323701342,2372
1777323701344,2392
1777323701347,2586
1777323701349,2388
1777323701351,2411
1777323701353,2434
1777323701355,2326
1777323701357,2322
1777323701359,2331
1777323701361,2356
1777323701363,2382
1777323701365,2400
1777323701347,2406
1777323701349,2394
1777323701351,2374
1777323701353,2349
1777323701355,2325
1777323701357,2319
1777323701359,2331
1777323701361,2352
1777323701363,2372
1777323701365,2400
1777323701347,2455
1777323701349,2579
1777323701351,2471
1777323701353,2523
1777323701355,2454
1777323701357,2502
1777323701359,2587
1777323701361,2719
1777323701363,2886
1777323701365,3072
1777323701403,3265
1777323701405,3435
1777323701407,3574
1777323701409,3668
1777323701411,3703
1777323701413,3685
1777323701415,3623
1777323701417,3531
1777323701419,3410
1777323701421,3254
1777323701403,3262
1777323701405,2863
1777323701407,2713
1777323701409,2592
1777323701411,2356
1777323701413,2224
1777323701415,2125
1777323701417,2066
1777323701419,2047
1777323701421,2062
1777323701437,2098
1777323701439,2139
1777323701441,2162
1777323701443,2173
1777323701445,2173
1777323701447,2195
1777323701449,2233
1777323701451,2276
1777323701453,2307
1777323701455,2315
1777323701437,2341
1777323701439,2422
1777323701441,2270
1777323701443,2274
1777323701445,2166
1777323701447,2155
1777323701449,2174
1777323701451,2205
1777323701453,2240
1777323701455,2262
1777323701499,2266
1777323701501,2254
1777323701503,2233
1777323701505,2207
1777323701507,2185
1777323701509,2180
1777323701511,2185
1777323701513,2204
1777323701515,2223
1777323701517,2239
1777323701499,2437
1777323701501,2238
1777323701503,2253
1777323701505,2276
1777323701507,2172
1777323701509,2170
1777323701511,2182
1777323701513,2207
1777323701515,2236
1777323701517,2260
1777323701531,2268
1777323701533,2267
1777323701535,2248
1777323701537,2229
1777323701539,2214
1777323701541,2218
1777323701543,2232
1777323701545,2262
1777323701547,2288
1777323701549,2308
1777323701531,2317
1777323701533,2502
1777323701535,2330
1777323701537,2315
1777323701539,2308
1777323701541,2269
1777323701543,2283
1777323701545,2305
1777323701547,2334
1777323701549,2353
1777323701531,2362
1777323701533,2356
1777323701535,2340
1777323701537,2320
1777323701539,2308
1777323701541,2318
1777323701543,2343
1777323701545,2376
1777323701547,2406
1777323701549,2431
1777323701572,2632
1777323701574,2435
1777323701576,2461
1777323701578,2402
1777323701580,2486
1777323701582,2394
1777323701584,2411
1777323701586,2441
1777323701588,2474
1777323701590,2499
1777323701572,2516
1777323701574,2522
1777323701576,2510
1777323701578,2493
1777323701580,2485
1777323701582,2495
1777323701584,2517
1777323701586,2550
1777323701588,2580
1777323701590,2604
1777323701627,2660
1777323701629,2763
1777323701631,2627
1777323701633,2652
1777323701635,2552
1777323701637,2560
1777323701639,2575
1777323701641,2595
1777323701643,2616
1777323701645,2629
1777323701627,2632
1777323701629,2618
1777323701631,2592
1777323701633,2560
1777323701635,2532
1777323701637,2522
1777323701639,2520
1777323701641,2527
1777323701643,2537
1777323701645,2533
1777323701662,2708
1777323701664,2492
1777323701666,2494
1777323701668,2503
1777323701670,2372
1777323701672,2351
1777323701674,2349
1777323701676,2361
1777323701678,2369
1777323701680,2363
1777323701662,2343
1777323701664,2308
1777323701666,2264
1777323701668,2225
1777323701670,2197
1777323701672,2187
1777323701674,2191
1777323701676,2206
1777323701678,2219
1777323701680,2229
1777323701723,2264
1777323701725,2361
1777323701727,2208
1777323701729,2243
1777323701731,2124
1777323701733,2118
1777323701735,2123
1777323701737,2135
1777323701739,2149
1777323701741,2149
1777323701723,2145
1777323701725,2118
1777323701727,2083
1777323701729,2048
1777323701731,2025
1777323701733,2026
1777323701735,2042
1777323701737,2066
1777323701739,2084
1777323701741,2097
1777323701723,2298
1777323701725,2076
1777323701727,2086
1777323701729,2107
1777323701731,1994
1777323701733,1989
1777323701735,1995
1777323701737,2013
1777323701739,2034
1777323701741,2044
1777323701755,2038
1777323701757,2022
1777323701759,1991
1777323701761,1961
1777323701763,1942
1777323701765,1935
1777323701767,1944
1777323701769,1957
1777323701771,1972
1777323701773,1979
1777323701755,2014
1777323701757,2118
1777323701759,1970
1777323701761,1985
1777323701763,1870
1777323701765,1863
1777323701767,1867
1777323701769,1883
1777323701771,1902
1777323701773,1909
1777323701797,1907
1777323701799,1889
1777323701801,1863
1777323701803,1841
1777323701805,1824
1777323701807,1837
1777323701809,1863
1777323701811,1894
1777323701813,1923
1777323701815,1940
1777323701797,2139
1777323701799,1922
1777323701801,1944
1777323701803,1972
1777323701805,1867
1777323701807,1871
1777323701809,1886
1777323701811,1909
1777323701813,1930
1777323701815,1940
1777323701860,1935
1777323701862,1922
1777323701864,1891
1777323701866,1865
1777323701868,1841
1777323701870,1847
1777323701872,1863
1777323701874,1894
1777323701876,1922
1777323701878,1936
1777323701860,1979
1777323701862,2083
1777323701864,1934
1777323701866,1960
1777323701868,1881
1777323701870,1872
1777323701872,1892
1777323701874,1917
1777323701876,1945
1777323701878,1957
1777323701905,1957
1777323701907,1941
1777323701909,1910
1777323701911,1884
1777323701913,1863
1777323701915,1866
1777323701917,1884
1777323701919,1912
1777323701921,1943
1777323701923,1959
1777323701905,2109
1777323701907,2028
1777323701909,1983
1777323701911,2020
1777323701913,1899
1777323701915,1894
1777323701917,1906
1777323701919,1930
1777323701921,1963
1777323701923,1980
1777323701905,1981
1777323701907,1973
1777323701909,1947
1777323701911,1927
1777323701913,1910
1777323701915,1914
1777323701917,1934
1777323701919,1967
1777323701921,1999
1777323701923,2015
1777323701949,2054
1777323701951,2170
1777323701953,2028
1777323701955,1975
1777323701957,2060
1777323701959,1980
1777323701961,1999
1777323701963,2025
1777323701965,2053
1777323701967,2065
1777323701949,2065
1777323701951,2051
1777323701953,2027
1777323701955,2009
1777323701957,1997
1777323701959,2008
1777323701961,2031
1777323701963,2059
1777323701965,2088
1777323701967,2104
1777323702014,2305
1777323702016,2094
1777323702018,2111
1777323702020,2133
1777323702022,2024
1777323702024,2028
1777323702026,2051
1777323702028,2085
1777323702030,2121
1777323702032,2137
1777323702014,2141
1777323702016,2132
1777323702018,2104
1777323702020,2079
1777323702022,2058
1777323702024,2060
1777323702026,2077
1777323702028,2106
1777323702030,2139
1777323702032,2153
1777323702035,2197
1777323702037,2285
1777323702039,2155
1777323702041,2183
1777323702043,2073
1777323702045,2078
1777323702047,2096
1777323702049,2125
1777323702051,2160
1777323702053,2182
1777323702035,2188
1777323702037,2180
1777323702039,2160
1777323702041,2143
1777323702043,2132
1777323702045,2143
1777323702047,2169
1777323702049,2196
1777323702051,2219
1777323702053,2233
1777323702077,2433
1777323702079,2226
1777323702081,2248
1777323702083,2283
1777323702085,2180
1777323702087,2181
1777323702089,2196
1777323702091,2223
1777323702093,2250
1777323702095,2266
1777323702077,2275
1777323702079,2270
1777323702081,2251
1777323702083,2235
1777323702085,2226
1777323702087,2234
1777323702089,2259
1777323702091,2295
1777323702093,2330
1777323702095,2349
1777323702077,2393
1777323702079,2494
1777323702081,2341
1777323702083,2365
1777323702085,2257
1777323702087,2250
1777323702089,2258
1777323702091,2281
1777323702093,2310
1777323702095,2332
1777323702112,2339
1777323702114,2332
1777323702116,2317
1777323702118,2294
1777323702120,2278
1777323702122,2271
1777323702124,2284
1777323702126,2309
1777323702128,2336
1777323702130,2352
1777323702112,2542
1777323702114,2319
1777323702116,2318
1777323702118,2338
1777323702120,2234
1777323702122,2243
1777323702124,2274
1777323702126,2312
1777323702128,2347
1777323702130,2362
1777323702174,2357
1777323702176,2337
1777323702178,2305
1777323702180,2273
1777323702182,2250
1777323702184,2250
1777323702186,2265
1777323702188,2288
1777323702190,2317
1777323702192,2330
1777323702174,2370
1777323702176,2473
1777323702178,2330
1777323702180,2368
1777323702182,2265
1777323702184,2262
1777323702186,2273
1777323702188,2293
1777323702190,2318
1777323702192,2332
1777323702205,2329
1777323702207,2309
1777323702209,2282
1777323702211,2257
1777323702213,2237
1777323702215,2234
1777323702217,2247
1777323702219,2275
1777323702221,2300
1777323702223,2323
1777323702205,2526
1777323702207,2317
1777323702209,2333
1777323702211,2356
1777323702213,2251
1777323702215,2248
1777323702217,2261
1777323702219,2279
1777323702221,2301
1777323702223,2310
1777323702270,2298
1777323702272,2270
1777323702274,2228
1777323702276,2197
1777323702278,2167
1777323702280,2156
1777323702282,2161
1777323702284,2176
1777323702286,2189
1777323702288,2189
1777323702270,2174
1777323702272,2341
1777323702274,2143
1777323702276,2100
1777323702278,2094
1777323702280,2027
1777323702282,2028
1777323702284,2041
1777323702286,2055
1777323702288,2057
1777323702270,2045
1777323702272,2021
1777323702274,1989
1777323702276,1958
1777323702278,1937
1777323702280,1927
1777323702282,1934
1777323702284,1953
1777323702286,1973
1777323702288,1981
1777323702303,2183
1777323702305,1967
1777323702307,1989
1777323702309,1930
1777323702311,2024
1777323702313,1932
1777323702315,1951
1777323702317,1975
1777323702319,1999
1777323702321,2008
1777323702303,2005
1777323702305,1993
1777323702307,1972
1777323702309,1953
1777323702311,1945
1777323702313,1953
1777323702315,1977
1777323702317,2009
1777323702319,2041
1777323702321,2069
1777323702358,2119
1777323702360,2232
1777323702362,2093
1777323702364,2123
1777323702366,2018
1777323702368,2020
1777323702370,2033
1777323702372,2049
1777323702374,2063
1777323702376,2062
1777323702358,2048
1777323702360,2030
1777323702362,2014
1777323702364,2018
1777323702366,2029
1777323702368,2053
1777323702370,2089
1777323702372,2120
1777323702374,2147
1777323702376,2163
1777323702402,2353
1777323702404,2141
1777323702406,2154
1777323702408,2181
1777323702410,2082
1777323702412,2088
1777323702414,2106
1777323702416,2124
1777323702418,2137
1777323702420,2141
1777323702402,2131
1777323702404,2122
1777323702406,2098
1777323702408,2077
1777323702410,2065
1777323702412,2065
1777323702414,2083
1777323702416,2109
1777323702418,2137
1777323702420,2156
1777323702430,2197
1777323702432,2300
1777323702434,2165
1777323702436,2194
1777323702438,2093
1777323702440,2093
1777323702442,2110
1777323702444,2140
1777323702446,2168
1777323702448,2185
1777323702430,2183
1777323702432,2159
1777323702434,2129
1777323702436,2102
1777323702438,2087
1777323702440,2092
1777323702442,2118
1777323702444,2148
1777323702446,2177
1777323702448,2196
1777323702430,2399
1777323702432,2194
1777323702434,2217
1777323702436,2258
1777323702438,2159
1777323702440,2154
1777323702442,2171
1777323702444,2195
1777323702446,2218
1777323702448,2236
1777323702493,2236
1777323702495,2222
1777323702497,2196
1777323702499,2168
1777323702501,2158
1777323702503,2168
1777323702505,2198
1777323702507,2240
1777323702509,2279
1777323702511,2312
1777323702493,2377
1777323702495,2509
1777323702497,2420
1777323702499,2539
1777323702501,2552
1777323702503,2704
1777323702505,2898
1777323702507,3109
1777323702509,3307
1777323702511,3465
1777323702525,3555
1777323702527,3555
1777323702529,3474
1777323702531,3352
1777323702533,3218
1777323702535,3100
1777323702537,2980
1777323702539,2848
1777323702541,2709
1777323702543,2584
1777323702525,2656
1777323702527,2353
1777323702529,2282
1777323702531,2241
1777323702533,2097
1777323702535,2090
1777323702537,2124
1777323702539,2179
1777323702541,2238
1777323702543,2285
1777323702562,2295
1777323702564,2296
1777323702566,2280
1777323702568,2266
1777323702570,2272
1777323702572,2287
1777323702574,2309
1777323702576,2333
1777323702578,2345
1777323702580,2348
1777323702562,2362
1777323702564,2454
1777323702566,2292
1777323702568,2323
1777323702570,2224
1777323702572,2231
1777323702574,2260
1777323702576,2299
1777323702578,2336
1777323702580,2361
1777323702622,2360
1777323702624,2347
1777323702626,2317
1777323702628,2295
1777323702630,2280
1777323702632,2276
1777323702634,2294
1777323702636,2318
1777323702638,2340
1777323702640,2356
1777323702622,2487
1777323702624,2399
1777323702626,2351
1777323702628,2374
1777323702630,2277
1777323702632,2280
1777323702634,2302
1777323702636,2339
1777323702638,2378
1777323702640,2409
1777323702622,2412
1777323702624,2407
1777323702626,2384
1777323702628,2360
1777323702630,2351
1777323702632,2357
1777323702634,2379
1777323702636,2411
1777323702638,2444
1777323702640,2471
1777323702654,2513
1777323702656,2616
1777323702658,2480
1777323702660,2414
1777323702662,2492
1777323702664,2398
1777323702666,2415
1777323702668,2445
1777323702670,2474
1777323702672,2499
1777323702654,2505
1777323702656,2503
1777323702658,2489
1777323702660,2471
1777323702662,2467
1777323702664,2469
1777323702666,2489
1777323702668,2516
1777323702670,2543
1777323702672,2564
1777323702718,2757
1777323702720,2555
1777323702722,2573
1777323702724,2606
1777323702726,2515
1777323702728,2527
1777323702730,2554
1777323702732,2595
1777323702734,2628
1777323702736,2651
1777323702718,2652
1777323702720,2642
1777323702722,2621
1777323702724,2594
1777323702726,2582
1777323702728,2582
1777323702730,2601
1777323702732,2636
1777323702734,2669
1777323702736,2699
1777323702750,2750
1777323702752,2849
1777323702754,2729
1777323702756,2757
1777323702758,2656
1777323702760,2653
1777323702762,2669
1777323702764,2688
1777323702766,2706
1777323702768,2708
1777323702750,2692
1777323702752,2667
1777323702754,2638
1777323702756,2602
1777323702758,2581
1777323702760,2568
1777323702762,2575
1777323702764,2589
1777323702766,2596
1777323702768,2597
1777323702787,2768
1777323702789,2545
1777323702791,2548
1777323702793,2558
1777323702795,2443
1777323702797,2423
1777323702799,2423
1777323702801,2433
1777323702803,2445
1777323702805,2445
1777323702787,2430
1777323702789,2402
1777323702791,2368
1777323702793,2334
1777323702795,2314
1777323702797,2300
1777323702799,2305
1777323702801,2324
1777323702803,2349
1777323702805,2363
1777323702787,2361
1777323702789,2542
1777323702791,2375
1777323702793,2316
1777323702795,2348
1777323702797,2284
1777323702799,2299
1777323702801,2325
1777323702803,2346
1777323702805,2357
1777323702846,2345
1777323702848,2321
1777323702850,2295
1777323702852,2274
1777323702854,2267
1777323702856,2276
1777323702858,2300
1777323702860,2329
1777323702862,2355
1777323702864,2373
1777323702846,2566
1777323702848,2358
1777323702850,2376
1777323702852,2393
1777323702854,2296
1777323702856,2293
1777323702858,2308
1777323702860,2337
1777323702862,2361
1777323702864,2378
1777323702878,2371
1777323702880,2356
1777323702882,2336
1777323702884,2316
1777323702886,2308
1777323702888,2314
1777323702890,2328
1777323702892,2349
1777323702894,2366
1777323702896,2377
1777323702878,2411
1777323702880,2507
1777323702882,2375
1777323702884,2398
1777323702886,2316
1777323702888,2332
1777323702890,2360
1777323702892,2394
1777323702894,2425
1777323702896,2446
1777323702942,2444
1777323702944,2421
1777323702946,2393
1777323702948,2373
1777323702950,2366
1777323702952,2382
1777323702954,2403
1777323702956,2439
1777323702958,2469
1777323702960,2487
1777323702974,2683
1777323702976,2465
1777323702978,2488
1777323702980,2503
1777323702982,2409
1777323702984,2420
1777323702986,2448
1777323702988,2482
1777323702990,2514
1777323702992,2535
1777323702974,2533
1777323702976,2516
1777323702978,2492
1777323702980,2468
1777323702982,2459
1777323702984,2463
1777323702986,2477
1777323702988,2503
1777323702990,2527
1777323702992,2548
1777323702974,2556
1777323702976,2728
1777323702978,2569
1777323702980,2552
1777323702982,2518
1777323702984,2491
1777323702986,2504
1777323702988,2531
1777323702990,2557
1777323702992,2574
1777323702974,2569
1777323702976,2548
1777323702978,2522
1777323702980,2496
1777323702982,2482
1777323702984,2486
1777323702986,2499
1777323702988,2522
1777323702990,2537
1777323702992,2542
1777323703012,2728
1777323703014,2512
1777323703016,2541
1777323703018,2469
1777323703020,2558
1777323703022,2462
1777323703024,2478
1777323703026,2499
1777323703028,2517
1777323703030,2524
1777323703012,2513
1777323703014,2493
1777323703016,2454
1777323703018,2422
1777323703020,2408
1777323703022,2409
1777323703024,2420
1777323703026,2436
1777323703028,2449
1777323703030,2457
1777323703071,2497
1777323703073,2593
1777323703075,2460
1777323703077,2431
1777323703079,2434
1777323703081,2400
1777323703083,2416
1777323703085,2437
1777323703087,2456
1777323703089,2464
1777323703071,2456
1777323703073,2428
1777323703075,2396
1777323703077,2370
1777323703079,2354
1777323703081,2359
1777323703083,2375
1777323703085,2403
1777323703087,2426
1777323703089,2445
1777323703103,2638
1777323703105,2427
1777323703107,2446
1777323703109,2460
1777323703111,2363
1777323703113,2359
1777323703115,2359
1777323703117,2376
1777323703119,2393
1777323703121,2404
1777323703103,2403
1777323703105,2394
1777323703107,2382
1777323703109,2367
1777323703111,2363
1777323703113,2369
1777323703115,2383
1777323703117,2407
1777323703119,2429
1777323703121,2440
1777323703167,2476
1777323703169,2562
1777323703171,2443
1777323703173,2464
1777323703175,2367
1777323703177,2373
1777323703179,2395
1777323703181,2423
1777323703183,2447
1777323703185,2453
1777323703167,2451
1777323703169,2424
1777323703171,2393
1777323703173,2366
1777323703175,2355
1777323703177,2368
1777323703179,2396
1777323703181,2432
1777323703183,2454
1777323703185,2469
1777323703167,2653
1777323703169,2453
1777323703171,2480
1777323703173,2493
1777323703175,2406
1777323703177,2406
1777323703179,2409
1777323703181,2421
1777323703183,2428
1777323703185,2435
1777323703199,2432
1777323703201,2415
1777323703203,2390
1777323703205,2366
1777323703207,2357
1777323703209,2361
1777323703211,2375
1777323703213,2395
1777323703215,2407
1777323703217,2407
1777323703199,2438
1777323703201,2528
1777323703203,2393
1777323703205,2414
1777323703207,2316
1777323703209,2324
1777323703211,2333
1777323703213,2356
1777323703215,2378
1777323703217,2388
1777323703237,2383
1777323703239,2358
1777323703241,2328
1777323703243,2305
1777323703245,2291
1777323703247,2305
1777323703249,2324
1777323703251,2354
1777323703253,2380
1777323703255,2399
1777323703237,2596
1777323703239,2381
1777323703241,2395
1777323703243,2403
1777323703245,2302
1777323703247,2309
1777323703249,2323
1777323703251,2353
1777323703253,2378
1777323703255,2394
1777323703295,2393
1777323703297,2380
1777323703299,2358
1777323703301,2342
1777323703303,2336
1777323703305,2347
1777323703307,2359
1777323703309,2379
1777323703311,2399
1777323703313,2408
1777323703295,2448
1777323703297,2546
1777323703299,2415
1777323703301,2432
1777323703303,2350
1777323703305,2368
1777323703307,2389
1777323703309,2421
1777323703311,2446
1777323703313,2464
1777323703391,2462
1777323703393,2442
1777323703395,2413
1777323703397,2386
1777323703399,2366
1777323703401,2370
1777323703403,2372
1777323703405,2380
1777323703407,2382
1777323703409,2373
1777323703391,2507
1777323703393,2424
1777323703395,2409
1777323703397,2463
1777323703399,2386
1777323703401,2406
1777323703403,2427
1777323703405,2451
1777323703407,2470
1777323703409,2472
1777323703391,2453
1777323703393,2418
1777323703395,2378
1777323703397,2348
1777323703399,2333
1777323703401,2337
1777323703403,2344
1777323703405,2363
1777323703407,2380
1777323703409,2387
1777323703391,2423
1777323703393,2503
1777323703395,2364
1777323703397,2346
1777323703399,2276
1777323703401,2257
1777323703403,2273
1777323703405,2306
1777323703407,2336
1777323703409,2349
1777323703391,2348
1777323703393,2326
1777323703395,2299
1777323703397,2274
1777323703399,2261
1777323703401,2266
1777323703403,2280
1777323703405,2303
1777323703407,2325
1777323703409,2330
1777323703422,2519
1777323703424,2295
1777323703426,2311
1777323703428,2316
1777323703430,2218
1777323703432,2231
1777323703434,2247
1777323703436,2272
1777323703438,2296
1777323703440,2301
1777323703422,2289
1777323703424,2262
1777323703426,2235
1777323703428,2215
1777323703430,2213
1777323703432,2227
1777323703434,2249
1777323703436,2278
1777323703438,2293
1777323703440,2290
1777323703462,2317
1777323703464,2404
1777323703466,2272
1777323703468,2281
1777323703470,2245
1777323703472,2257
1777323703474,2303
1777323703476,2367
1777323703478,2431
1777323703480,2499
1777323703462,2587
1777323703464,2688
1777323703466,2820
1777323703468,2979
1777323703470,3155
1777323703472,3329
1777323703474,3473
1777323703476,3561
1777323703478,3560
1777323703480,3473
1777323703519,3536
1777323703521,3166
1777323703523,3045
1777323703525,2908
1777323703527,2641
1777323703529,2499
1777323703531,2392
1777323703533,2320
1777323703535,2273
1777323703537,2213
1777323703519,2153
1777323703521,2089
1777323703523,2046
1777323703525,2032
1777323703527,2046
1777323703529,2090
1777323703531,2136
1777323703533,2177
1777323703535,2207
1777323703537,2219
1777323703519,2260
1777323703521,2355
1777323703523,2232
1777323703525,2258
1777323703527,2170
1777323703529,2182
1777323703531,2198
1777323703533,2213
1777323703535,2223
1777323703537,2222
1777323703552,2215
1777323703554,2191
1777323703556,2170
1777323703558,2156
1777323703560,2158
1777323703562,2180
1777323703564,2206
1777323703566,2239
1777323703568,2260
1777323703570,2272
1777323703552,2455
1777323703554,2246
1777323703556,2266
1777323703558,2284
1777323703560,2194
1777323703562,2213
1777323703564,2238
1777323703566,2272
1777323703568,2301
1777323703570,2316
1777323703614,2315
1777323703616,2294
1777323703618,2262
1777323703620,2240
1777323703622,2227
1777323703624,2243
1777323703626,2269
1777323703628,2300
1777323703630,2324
1777323703632,2339
1777323703614,2379
1777323703616,2478
1777323703618,2337
1777323703620,2350
1777323703622,2263
1777323703624,2276
1777323703626,2299
1777323703628,2329
1777323703630,2358
1777323703632,2371
1777323703646,2366
1777323703648,2348
1777323703650,2326
1777323703652,2310
1777323703654,2300
1777323703656,2309
1777323703658,2330
1777323703660,2362
1777323703662,2386
1777323703664,2399
1777323703646,2591
1777323703648,2380
1777323703650,2404
1777323703652,2440
1777323703654,2353
1777323703656,2377
1777323703658,2410
1777323703660,2448
1777323703662,2480
1777323703664,2498
1777323703687,2501
1777323703689,2494
1777323703691,2474
1777323703693,2457
1777323703695,2458
1777323703697,2478
1777323703699,2510
1777323703701,2539
1777323703703,2562
1777323703705,2574
1777323703687,2576
1777323703689,2759
1777323703691,2598
1777323703693,2584
1777323703695,2595
1777323703697,2565
1777323703699,2589
1777323703701,2612
1777323703703,2628
1777323703705,2635
1777323703687,2633
1777323703689,2617
1777323703691,2588
1777323703693,2564
1777323703695,2555
1777323703697,2558
1777323703699,2576
1777323703701,2590
1777323703703,2601
1777323703705,2601
1777323703742,2778
1777323703744,2555
1777323703746,2564
1777323703748,2487
1777323703750,2558
1777323703752,2469
1777323703754,2482
1777323703756,2492
1777323703758,2499
1777323703760,2488
1777323703742,2460
1777323703744,2423
1777323703746,2379
1777323703748,2346
1777323703750,2325
1777323703752,2324
1777323703754,2334
1777323703756,2344
1777323703758,2350
1777323703760,2344
1777323703777,2361
1777323703779,2433
1777323703781,2288
1777323703783,2300
1777323703785,2201
1777323703787,2209
1777323703789,2228
1777323703791,2248
1777323703793,2267
1777323703795,2267
1777323703777,2254
1777323703779,2229
1777323703781,2198
1777323703783,2167
1777323703785,2153
1777323703787,2157
1777323703789,2175
1777323703791,2199
1777323703793,2220
1777323703795,2230
1777323703839,2375
1777323703841,2252
1777323703843,2225
1777323703845,2250
1777323703847,2158
1777323703849,2169
1777323703851,2193
1777323703853,2218
1777323703855,2240
1777323703857,2248
1777323703839,2240
1777323703841,2221
1777323703843,2185
1777323703845,2159
1777323703847,2148
1777323703849,2157
1777323703851,2176
1777323703853,2198
1777323703855,2217
1777323703857,2233
1777323703870,2282
1777323703872,2367
1777323703874,2243
1777323703876,2277
1777323703878,2189
1777323703880,2195
1777323703882,2213
1777323703884,2236
1777323703886,2254
1777323703888,2258
1777323703870,2253
1777323703872,2231
1777323703874,2202
1777323703876,2184
1777323703878,2181
1777323703880,2196
1777323703882,2218
1777323703884,2244
1777323703886,2264
1777323703888,2271
1777323703870,2461
1777323703872,2243
1777323703874,2254
1777323703876,2277
1777323703878,2187
1777323703880,2198
1777323703882,2223
1777323703884,2249
1777323703886,2275
1777323703888,2290
1777323703935,2282
1777323703937,2262
1777323703939,2232
1777323703941,2208
1777323703943,2202
1777323703945,2211
1777323703947,2237
1777323703949,2267
1777323703951,2293
1777323703953,2306
1777323703935,2343
1777323703937,2439
1777323703939,2305
1777323703941,2337
1777323703943,2238
1777323703945,2244
1777323703947,2263
1777323703949,2285
1777323703951,2304
1777323703953,2311
1777323703966,2304
1777323703968,2285
1777323703970,2260
1777323703972,2244
1777323703974,2249
1777323703976,2268
1777323703978,2291
1777323703980,2315
1777323703982,2334
1777323703984,2343
1777323703966,2531
1777323703968,2313
1777323703970,2321
1777323703972,2353
1777323703974,2261
1777323703976,2277
1777323703978,2304
1777323703980,2334
1777323703982,2360
1777323703984,2366
1777323704002,2352
1777323704004,2329
1777323704006,2288
1777323704008,2260
1777323704010,2246
1777323704012,2248
1777323704014,2269
1777323704016,2293
1777323704018,2311
1777323704020,2319
1777323704002,2352
1777323704004,2455
1777323704006,2311
1777323704008,2346
1777323704010,2245
1777323704012,2252
1777323704014,2270
1777323704016,2290
1777323704018,2310
1777323704020,2312
1777323704062,2302
1777323704064,2283
1777323704066,2253
1777323704068,2236
1777323704070,2230
1777323704072,2243
1777323704074,2269
1777323704076,2293
1777323704078,2312
1777323704080,2322
1777323704062,2455
1777323704064,2353
1777323704066,2308
1777323704068,2346
1777323704070,2244
1777323704072,2255
1777323704074,2280
1777323704076,2307
1777323704078,2319
1777323704080,2319
1777323704062,2298
1777323704064,2279
1777323704066,2252
1777323704068,2236
1777323704070,2240
1777323704072,2260
1777323704074,2291
1777323704076,2317
1777323704078,2336
1777323704080,2341
1777323704094,2375
1777323704096,2463
1777323704098,2318
1777323704100,2261
1777323704102,2340
1777323704104,2260
1777323704106,2280
1777323704108,2298
1777323704110,2318
1777323704112,2331
1777323704094,2333
1777323704096,2322
1777323704098,2297
1777323704100,2278
1777323704102,2274
1777323704104,2285
1777323704106,2308
1777323704108,2329
1777323704110,2349
1777323704112,2355
1777323704159,2544
1777323704161,2332
1777323704163,2348
1777323704165,2375
1777323704167,2293
1777323704169,2310
1777323704171,2338
1777323704173,2357
1777323704175,2374
1777323704177,2374
1777323704159,2360
1777323704161,2346
1777323704163,2322
1777323704165,2307
1777323704167,2302
1777323704169,2312
1777323704171,2339
1777323704173,2366
1777323704175,2391
1777323704177,2399
1777323704191,2433
1777323704193,2518
1777323704195,2377
1777323704197,2407
1777323704199,2311
1777323704201,2321
1777323704203,2347
1777323704205,2372
1777323704207,2393
1777323704209,2401
1777323704191,2392
1777323704193,2372
1777323704195,2346
1777323704197,2327
1777323704199,2323
1777323704201,2330
1777323704203,2351
1777323704205,2373
1777323704207,2392
1777323704209,2398
1777323704228,2588
1777323704230,2372
1777323704232,2384
1777323704234,2401
1777323704236,2315
1777323704238,2325
1777323704240,2351
1777323704242,2372
1777323704244,2389
1777323704246,2392
1777323704228,2385
1777323704230,2364
1777323704232,2336
1777323704234,2314
1777323704236,2308
1777323704238,2318
1777323704240,2347
1777323704242,2375
1777323704244,2396
1777323704246,2406
1777323704228,2437
1777323704230,2525
1777323704232,2384
1777323704234,2413
1777323704236,2335
1777323704238,2338
1777323704240,2370
1777323704242,2401
1777323704244,2427
1777323704246,2441
1777323704287,2439
1777323704289,2430
1777323704291,2417
1777323704293,2411
1777323704295,2419
1777323704297,2441
1777323704299,2473
1777323704301,2498
1777323704303,2508
1777323704305,2505
1777323704287,2672
1777323704289,2436
1777323704291,2432
1777323704293,2438
1777323704295,2360
1777323704297,2380
1777323704299,2424
1777323704301,2469
1777323704303,2503
1777323704305,2515
1777323704319,2503
1777323704321,2478
1777323704323,2437
1777323704325,2400
1777323704327,2374
1777323704329,2376
1777323704331,2388
1777323704333,2403
1777323704335,2419
1777323704337,2418
1777323704319,2438
1777323704321,2526
1777323704323,2375
1777323704325,2401
1777323704327,2311
1777323704329,2328
1777323704331,2360
1777323704333,2381
1777323704335,2393
1777323704337,2389
1777323704383,2373
1777323704385,2346
1777323704387,2315
1777323704389,2293
1777323704391,2295
1777323704393,2309
1777323704395,2336
1777323704397,2365
1777323704399,2384
1777323704401,2391
1777323704383,2582
1777323704385,2370
1777323704387,2381
1777323704389,2411
1777323704391,2315
1777323704393,2324
1777323704395,2349
1777323704397,2377
1777323704399,2401
1777323704401,2413
1777323704415,2408
1777323704417,2394
1777323704419,2370
1777323704421,2354
1777323704423,2349
1777323704425,2362
1777323704427,2390
1777323704429,2415
1777323704431,2429
1777323704433,2424
1777323704415,2407
1777323704417,2571
1777323704419,2386
1777323704421,2383
1777323704423,2353
1777323704425,2329
1777323704427,2353
1777323704429,2379
1777323704431,2409
1777323704433,2432
1777323704415,2442
1777323704417,2445
1777323704419,2451
1777323704421,2470
1777323704423,2525
1777323704425,2630
1777323704427,2782
1777323704429,2970
1777323704431,3171
1777323704433,3374
1777323704474,3763
1777323704476,3669
1777323704478,3785
1777323704480,3732
1777323704482,3782
1777323704484,3590
1777323704486,3483
1777323704488,3363
1777323704490,3206
1777323704492,3010
1777323704474,2805
1777323704476,2621
1777323704478,2454
1777323704480,2310
1777323704482,2192
1777323704484,2115
1777323704486,2089
1777323704488,2104
1777323704490,2143
1777323704492,2196
1777323704520,2286
1777323704522,2416
1777323704524,2303
1777323704526,2353
1777323704528,2264
1777323704530,2296
1777323704532,2333
1777323704534,2361
1777323704536,2369
1777323704538,2353
1777323704520,2317
1777323704522,2272
1777323704524,2231
1777323704526,2200
1777323704528,2193
1777323704530,2208
1777323704532,2239
1777323704534,2273
1777323704536,2297
1777323704538,2306
1777323704543,2497
1777323704545,2283
1777323704547,2299
1777323704549,2335
1777323704551,2242
1777323704553,2255
1777323704555,2274
1777323704557,2301
1777323704559,2320
1777323704561,2327
1777323704543,2318
1777323704545,2302
1777323704547,2276
1777323704549,2259
1777323704551,2255
1777323704553,2273
1777323704555,2303
1777323704557,2338
1777323704559,2364
1777323704561,2374
1777323704608,2413
1777323704610,2494
1777323704612,2361
1777323704614,2399
1777323704616,2301
1777323704618,2314
1777323704620,2342
1777323704622,2371
1777323704624,2388
1777323704626,2390
1777323704608,2383
1777323704610,2366
1777323704612,2346
1777323704614,2331
1777323704616,2333
1777323704618,2349
1777323704620,2378
1777323704622,2412
1777323704624,2433
1777323704626,2443
1777323704608,2634
1777323704610,2418
1777323704612,2441
1777323704614,2477
1777323704616,2393
1777323704618,2409
1777323704620,2435
1777323704622,2465
1777323704624,2489
1777323704626,2505
1777323704642,2505
1777323704644,2500
1777323704646,2492
1777323704648,2490
1777323704650,2501
1777323704652,2520
1777323704654,2549
1777323704656,2581
1777323704658,2601
1777323704660,2608
1777323704642,2644
1777323704644,2743
1777323704646,2608
1777323704648,2647
1777323704650,2590
1777323704652,2604
1777323704654,2643
1777323704656,2680
1777323704658,2706
1777323704660,2714
1777323704678,2705
1777323704680,2682
1777323704682,2657
1777323704684,2639
1777323704686,2634
1777323704688,2651
1777323704690,2673
1777323704692,2694
1777323704694,2701
1777323704696,2697
1777323704678,2878
1777323704680,2649
1777323704682,2656
1777323704684,2683
1777323704686,2587
1777323704688,2593
1777323704690,2606
1777323704692,2615
1777323704694,2613
1777323704696,2595
1777323704739,2559
1777323704741,2513
1777323704743,2465
1777323704745,2426
1777323704747,2399
1777323704749,2398
1777323704751,2404
1777323704753,2419
1777323704755,2423
1777323704757,2418
1777323704739,2433
1777323704741,2513
1777323704743,2358
1777323704745,2376
1777323704747,2271
1777323704749,2269
1777323704751,2280
1777323704753,2292
1777323704755,2296
1777323704757,2288
1777323704770,2265
1777323704772,2236
1777323704774,2207
1777323704776,2185
1777323704778,2174
1777323704780,2181
1777323704782,2201
1777323704784,2227
1777323704786,2241
1777323704788,2237
1777323704770,2360
1777323704772,2263
1777323704774,2218
1777323704776,2251
1777323704778,2165
1777323704780,2177
1777323704782,2199
1777323704784,2226
1777323704786,2247
1777323704788,2251
1777323704770,2237
1777323704772,2216
1777323704774,2190
1777323704776,2168
1777323704778,2163
1777323704780,2171
1777323704782,2190
1777323704784,2218
1777323704786,2234
1777323704788,2237
1777323704828,2225
1777323704830,2396
1777323704832,2171
1777323704834,2202
1777323704836,2245
1777323704838,2172
1777323704840,2203
1777323704842,2232
1777323704844,2248
1777323704846,2251
1777323704828,2238
1777323704830,2213
1777323704832,2181
1777323704834,2155
1777323704836,2153
1777323704838,2162
1777323704840,2182
1777323704842,2209
1777323704844,2224
1777323704846,2226
1777323704901,2418
1777323704903,2200
1777323704905,2224
1777323704907,2247
1777323704909,2158
1777323704911,2176
1777323704913,2199
1777323704915,2226
1777323704917,2239
1777323704919,2242
1777323704901,2228
1777323704903,2205
1777323704905,2176
1777323704907,2154
1777323704909,2149
1777323704911,2159
1777323704913,2184
1777323704915,2216
1777323704917,2235
1777323704919,2238
1777323704950,2271
1777323704952,2364
1777323704954,2227
1777323704956,2244
1777323704958,2160
1777323704960,2172
1777323704962,2191
1777323704964,2213
1777323704966,2225
1777323704968,2224
1777323704950,2211
1777323704952,2185
1777323704954,2161
1777323704956,2144
1777323704958,2141
1777323704960,2152
1777323704962,2174
1777323704964,2199
1777323704966,2209
1777323704968,2209
1777323704951,2399
1777323704953,2174
1777323704955,2201
1777323704957,2231
1777323704959,2140
1777323704961,2157
1777323704963,2181
1777323704965,2201
1777323704967,2204
1777323704969,2199
1777323704951,2179
1777323704953,2152
1777323704955,2126
1777323704957,2106
1777323704959,2102
1777323704961,2114
1777323704963,2134
1777323704965,2159
1777323704967,2170
1777323704969,2165
1777323704951,2186
1777323704953,2276
1777323704955,2127
1777323704957,2157
1777323704959,2069
1777323704961,2089
1777323704963,2116
1777323704965,2144
1777323704967,2160
1777323704969,2158
1777323705002,2136
1777323705004,2102
1777323705006,2074
1777323705008,2048
1777323705010,2048
1777323705012,2067
1777323705014,2093
1777323705016,2121
1777323705018,2130
1777323705020,2132
1777323705002,2316
1777323705004,2089
1777323705006,2111
1777323705008,2137
1777323705010,2044
1777323705012,2055
1777323705014,2079
1777323705016,2109
1777323705018,2124
1777323705020,2124
1777323705052,2102
1777323705054,2067
1777323705056,2031
1777323705058,1997
1777323705060,1979
1777323705062,1986
1777323705064,2002
1777323705066,2024
1777323705068,2033
1777323705070,2032
1777323705052,2062
1777323705054,2156
1777323705056,2007
1777323705058,2009
1777323705060,1939
1777323705062,1921
1777323705064,1926
1777323705066,1940
1777323705068,1948
1777323705070,1939
1777323705103,1917
1777323705105,1880
1777323705107,1842
1777323705109,1811
1777323705111,1804
1777323705113,1815
1777323705115,1835
1777323705117,1858
1777323705119,1862
1777323705121,1855
1777323705103,2051
1777323705105,1803
1777323705107,1818
1777323705109,1837
1777323705111,1725
1777323705113,1731
1777323705115,1751
1777323705117,1773
1777323705119,1783
