timestamp_ms,ecg_raw
1777572547553,2822
1777572547555,2763
1777572547557,2753
1777572547559,2806
1777572547561,2888
1777572547563,2956
1777572547565,2983
1777572547567,2979
1777572547569,2944
1777572547571,2864
1777572547553,2820
1777572547555,2768
1777572547557,2759
1777572547559,2806
1777572547561,2875
1777572547563,2946
1777572547565,2999
1777572547567,3020
1777572547569,3002
1777572547571,2933
1777572547553,2847
1777572547555,2783
1777572547557,2772
1777572547559,2809
1777572547561,2876
1777572547563,2945
1777572547565,2991
1777572547567,3014
1777572547569,3021
1777572547571,2987
1777572547586,2921
1777572547588,2854
1777572547590,2848
1777572547592,2926
1777572547594,2992
1777572547596,3052
1777572547598,3096
1777572547600,3098
1777572547602,3058
1777572547604,2990
1777572547586,2914
1777572547588,2857
1777572547590,2841
1777572547592,2866
1777572547594,2924
1777572547596,3002
1777572547598,3063
1777572547600,3088
1777572547602,3062
1777572547604,3004
1777572547646,2930
1777572547648,2860
1777572547650,2841
1777572547652,2875
1777572547654,2906
1777572547656,2993
1777572547658,3027
1777572547660,3034
1777572547662,3006
1777572547664,2941
1777572547646,2870
1777572547648,2809
1777572547650,2799
1777572547652,2841
1777572547654,2910
1777572547656,2980
1777572547658,3028
1777572547660,3048
1777572547662,3027
1777572547664,2960
1777572547700,2864
1777572547702,2798
1777572547704,2782
1777572547706,2818
1777572547708,2870
1777572547710,2922
1777572547712,2961
1777572547714,2979
1777572547716,2967
1777572547718,2893
1777572547700,2803
1777572547702,2737
1777572547704,2722
1777572547706,2760
1777572547708,2837
1777572547710,2913
1777572547712,2970
1777572547714,2993
1777572547716,2962
1777572547718,2887
1777572547739,2797
1777572547741,2728
1777572547743,2715
1777572547745,2760
1777572547747,2835
1777572547749,2916
1777572547751,2985
1777572547753,3040
1777572547755,3069
1777572547757,3068
1777572547740,3115
1777572547742,3149
1777572547744,3240
1777572547746,3415
1777572547748,3626
1777572547750,3850
1777572547752,4041
1777572547754,4095
1777572547756,4095
1777572547758,4075
1777572547740,3930
1777572547742,3737
1777572547744,3574
1777572547746,3455
1777572547748,3413
1777572547750,3311
1777572547752,3247
1777572547754,3154
1777572547756,3030
1777572547758,2890
1777572547783,2747
1777572547785,2631
1777572547787,2567
1777572547789,2602
1777572547791,2642
1777572547793,2702
1777572547795,2755
1777572547797,2790
1777572547799,2789
1777572547801,2752
1777572547783,2689
1777572547785,2634
1777572547787,2619
1777572547789,2659
1777572547791,2728
1777572547793,2817
1777572547795,2887
1777572547797,2928
1777572547799,2931
1777572547801,2887
1777572547852,2819
1777572547854,2763
1777572547856,2758
1777572547858,2806
1777572547860,2851
1777572547862,2952
1777572547864,2997
1777572547866,3009
1777572547868,2990
1777572547870,2933
1777572547852,2851
1777572547854,2781
1777572547856,2753
1777572547858,2774
1777572547860,2837
1777572547862,2901
1777572547864,2948
1777572547866,2963
1777572547868,2944
1777572547870,2898
1777572547875,2849
1777572547877,2805
1777572547879,2793
1777572547881,2828
1777572547883,2895
1777572547885,2955
1777572547887,2993
1777572547889,3005
1777572547891,3001
1777572547893,2937
1777572547875,2857
1777572547877,2788
1777572547879,2758
1777572547881,2791
1777572547883,2854
1777572547885,2926
1777572547887,2989
1777572547889,3017
1777572547891,3009
1777572547893,2960
1777572547920,2889
1777572547922,2820
1777572547924,2785
1777572547926,2804
1777572547928,2865
1777572547930,2938
1777572547932,3010
1777572547934,3055
1777572547936,3059
1777572547938,2994
1777572547920,2952
1777572547922,2887
1777572547924,2868
1777572547926,2902
1777572547928,2968
1777572547930,3042
1777572547932,3104
1777572547934,3135
1777572547936,3122
1777572547938,3070
1777572547920,2996
1777572547922,2945
1777572547924,2948
1777572547926,3000
1777572547928,3069
1777572547930,3147
1777572547932,3192
1777572547934,3207
1777572547936,3188
1777572547938,3121
1777572547969,3019
1777572547971,2931
1777572547973,2898
1777572547975,2961
1777572547977,3032
1777572547979,3103
1777572547981,3162
1777572547983,3179
1777572547985,3161
1777572547987,3100
1777572547969,3012
1777572547971,2927
1777572547973,2890
1777572547975,2905
1777572547977,2954
1777572547979,3017
1777572547981,3061
1777572547983,3078
1777572547985,3061
1777572547987,3002
1777572547993,2901
1777572547995,2808
1777572547997,2756
1777572547999,2756
1777572548001,2766
1777572548003,2833
1777572548005,2853
1777572548007,2852
1777572548009,2808
1777572548011,2734
1777572547993,2630
1777572547995,2530
1777572547997,2479
1777572547999,2492
1777572548001,2552
1777572548003,2613
1777572548005,2659
1777572548007,2676
1777572548009,2649
1777572548011,2580
1777572548045,2489
1777572548047,2404
1777572548049,2364
1777572548051,2384
1777572548053,2437
1777572548055,2493
1777572548057,2540
1777572548059,2579
1777572548061,2590
1777572548063,2535
1777572548045,2455
1777572548047,2369
1777572548049,2325
1777572548051,2346
1777572548053,2393
1777572548055,2451
1777572548057,2499
1777572548059,2524
1777572548061,2518
1777572548063,2480
1777572548118,2414
1777572548120,2343
1777572548122,2304
1777572548124,2316
1777572548126,2355
1777572548128,2414
1777572548130,2477
1777572548132,2514
1777572548134,2516
1777572548136,2460
1777572548118,2416
1777572548120,2326
1777572548122,2281
1777572548124,2293
1777572548126,2352
1777572548128,2429
1777572548130,2494
1777572548132,2531
1777572548134,2542
1777572548136,2513
1777572548118,2447
1777572548120,2373
1777572548122,2330
1777572548124,2334
1777572548126,2366
1777572548128,2428
1777572548130,2482
1777572548132,2514
1777572548134,2514
1777572548136,2478
1777572548169,2398
1777572548171,2324
1777572548173,2291
1777572548175,2343
1777572548177,2406
1777572548179,2469
1777572548181,2522
1777572548183,2552
1777572548185,2541
1777572548187,2493
1777572548193,2427
1777572548195,2362
1777572548197,2328
1777572548199,2335
1777572548201,2387
1777572548203,2457
1777572548205,2521
1777572548207,2571
1777572548209,2579
1777572548211,2536
1777572548193,2462
1777572548195,2390
1777572548197,2339
1777572548199,2344
1777572548201,2390
1777572548203,2474
1777572548205,2526
1777572548207,2564
1777572548209,2565
1777572548211,2526
1777572548193,2452
1777572548195,2368
1777572548197,2308
1777572548199,2312
1777572548201,2366
1777572548203,2444
1777572548205,2517
1777572548207,2560
1777572548209,2563
1777572548211,2518
1777572548217,2438
1777572548219,2352
1777572548221,2301
1777572548223,2310
1777572548225,2366
1777572548227,2433
1777572548229,2501
1777572548231,2534
1777572548233,2562
1777572548235,2519
1777572548218,2439
1777572548220,2350
1777572548222,2300
1777572548224,2311
1777572548226,2368
1777572548228,2440
1777572548230,2495
1777572548232,2519
1777572548234,2517
1777572548236,2482
1777572548274,2407
1777572548276,2322
1777572548278,2275
1777572548280,2288
1777572548282,2347
1777572548284,2423
1777572548286,2499
1777572548288,2554
1777572548290,2562
1777572548292,2504
1777572548274,2452
1777572548276,2363
1777572548278,2313
1777572548280,2318
1777572548282,2365
1777572548284,2438
1777572548286,2495
1777572548288,2526
1777572548290,2532
1777572548292,2501
1777572548274,2426
1777572548276,2340
1777572548278,2296
1777572548280,2311
1777572548282,2362
1777572548284,2445
1777572548286,2520
1777572548288,2556
1777572548290,2536
1777572548292,2475
1777572548330,2385
1777572548332,2303
1777572548334,2255
1777572548336,2297
1777572548338,2345
1777572548340,2411
1777572548342,2463
1777572548344,2492
1777572548346,2495
1777572548348,2456
1777572548376,2376
1777572548378,2300
1777572548380,2251
1777572548382,2252
1777572548384,2298
1777572548386,2355
1777572548388,2403
1777572548390,2438
1777572548392,2448
1777572548394,2409
1777572548376,2343
1777572548378,2274
1777572548380,2219
1777572548382,2213
1777572548384,2249
1777572548386,2340
1777572548388,2400
1777572548390,2441
1777572548392,2448
1777572548394,2409
1777572548376,2330
1777572548378,2245
1777572548380,2187
1777572548382,2192
1777572548384,2232
1777572548386,2298
1777572548388,2359
1777572548390,2404
1777572548392,2425
1777572548394,2401
1777572548421,2327
1777572548423,2238
1777572548425,2170
1777572548427,2170
1777572548429,2227
1777572548431,2297
1777572548433,2354
1777572548435,2385
1777572548437,2413
1777572548439,2375
1777572548421,2306
1777572548423,2232
1777572548425,2193
1777572548427,2195
1777572548429,2231
1777572548431,2290
1777572548433,2350
1777572548435,2387
1777572548437,2382
1777572548439,2340
1777572548466,2270
1777572548468,2196
1777572548470,2142
1777572548472,2141
1777572548474,2185
1777572548476,2264
1777572548478,2321
1777572548480,2347
1777572548482,2344
1777572548484,2283
1777572548466,2237
1777572548468,2170
1777572548470,2119
1777572548472,2111
1777572548474,2146
1777572548476,2198
1777572548478,2241
1777572548480,2269
1777572548482,2263
1777572548484,2215
1777572548552,2129
1777572548554,2041
1777572548556,1989
1777572548558,1982
1777572548560,2030
1777572548562,2105
1777572548564,2174
1777572548566,2212
1777572548568,2215
1777572548570,2176
1777572548552,2090
1777572548554,1989
1777572548556,1921
1777572548558,1921
1777572548560,1963
1777572548562,2024
1777572548564,2084
1777572548566,2140
1777572548568,2157
1777572548570,2125
1777572548552,2051
1777572548554,1964
1777572548556,1903
1777572548558,1907
1777572548560,1951
1777572548562,2023
1777572548564,2097
1777572548566,2152
1777572548568,2170
1777572548570,2141
1777572548552,2067
1777572548554,1977
1777572548556,1892
1777572548558,1867
1777572548560,1890
1777572548562,1974
1777572548564,2051
1777572548566,2112
1777572548568,2140
1777572548570,2133
1777572548552,2088
1777572548554,2037
1777572548556,2015
1777572548558,2057
1777572548560,2162
1777572548562,2323
1777572548564,2514
1777572548566,2689
1777572548568,2818
1777572548570,2902
1777572548593,2937
1777572548595,2924
1777572548597,2907
1777572548599,2911
1777572548601,2915
1777572548603,2891
1777572548605,2837
1777572548607,2733
1777572548609,2652
1777572548611,2508
1777572548593,2320
1777572548595,2121
1777572548597,1967
1777572548599,1882
1777572548601,1861
1777572548603,1890
1777572548605,1928
1777572548607,1959
1777572548609,1961
1777572548611,1928
1777572548635,1864
1777572548637,1795
1777572548639,1749
1777572548641,1747
1777572548643,1799
1777572548645,1889
1777572548647,1971
1777572548649,2027
1777572548651,2055
1777572548653,2031
1777572548635,2012
1777572548637,1956
1777572548639,1909
1777572548641,1906
1777572548643,1947
1777572548645,2015
1777572548647,2085
1777572548649,2141
1777572548651,2166
1777572548653,2153
1777572548700,2102
1777572548702,2021
1777572548704,1957
1777572548706,1934
1777572548708,1979
1777572548710,2056
1777572548712,2131
1777572548714,2191
1777572548716,2216
1777572548718,2198
1777572548700,2134
1777572548702,2049
1777572548704,1997
1777572548706,2012
1777572548708,2059
1777572548710,2130
1777572548712,2198
1777572548714,2254
1777572548716,2278
1777572548718,2274
1777572548720,2230
1777572548722,2150
1777572548724,2084
1777572548726,2079
1777572548728,2117
1777572548730,2178
1777572548732,2234
1777572548734,2277
1777572548736,2295
1777572548738,2282
1777572548720,2230
1777572548722,2153
1777572548724,2087
1777572548726,2064
1777572548728,2078
1777572548730,2188
1777572548732,2281
1777572548734,2352
1777572548736,2387
1777572548738,2374
1777572548720,2316
1777572548722,2227
1777572548724,2171
1777572548726,2164
1777572548728,2208
1777572548730,2283
1777572548732,2358
1777572548734,2418
1777572548736,2453
1777572548738,2453
1777572548764,2418
1777572548766,2356
1777572548768,2303
1777572548770,2286
1777572548772,2311
1777572548774,2388
1777572548776,2469
1777572548778,2541
1777572548780,2613
1777572548782,2611
1777572548764,2550
1777572548766,2471
1777572548768,2407
1777572548770,2393
1777572548772,2426
1777572548774,2495
1777572548776,2562
1777572548778,2618
1777572548780,2640
1777572548782,2626
1777572548801,2567
1777572548803,2491
1777572548805,2428
1777572548807,2403
1777572548809,2431
1777572548811,2493
1777572548813,2558
1777572548815,2607
1777572548817,2622
1777572548819,2582
1777572548801,2542
1777572548803,2442
1777572548805,2357
1777572548807,2318
1777572548809,2330
1777572548811,2376
1777572548813,2417
1777572548815,2454
1777572548817,2452
1777572548819,2412
1777572548859,2341
1777572548861,2241
1777572548863,2156
1777572548865,2125
1777572548867,2138
1777572548869,2187
1777572548871,2239
1777572548873,2274
1777572548875,2281
1777572548877,2244
1777572548859,2173
1777572548861,2075
1777572548863,2000
1777572548865,1996
1777572548867,2036
1777572548869,2103
1777572548871,2166
1777572548873,2211
1777572548875,2234
1777572548877,2217
1777572548859,2154
1777572548861,2061
1777572548863,1984
1777572548865,1960
1777572548867,1987
1777572548869,2055
1777572548871,2123
1777572548873,2181
1777572548875,2214
1777572548877,2211
1777572548891,2163
1777572548893,2083
1777572548895,1994
1777572548897,1947
1777572548899,1937
1777572548901,2039
1777572548903,2117
1777572548905,2169
1777572548907,2193
1777572548909,2191
1777572548891,2155
1777572548893,2086
1777572548895,2022
1777572548897,1997
1777572548899,2028
1777572548901,2095
1777572548903,2170
1777572548905,2233
1777572548907,2271
1777572548909,2264
1777572548960,2205
1777572548962,2117
1777572548964,2037
1777572548966,2007
1777572548968,2038
1777572548970,2122
1777572548972,2194
1777572548974,2251
1777572548976,2295
1777572548978,2270
1777572548960,2197
1777572548962,2108
1777572548964,2023
1777572548966,1985
1777572548968,2012
1777572548970,2102
1777572548972,2203
1777572548974,2289
1777572548976,2336
1777572548978,2322
1777572548994,2253
1777572548996,2157
1777572548998,2051
1777572549000,1996
1777572549002,2010
1777572549004,2066
1777572549006,2135
1777572549008,2204
1777572549010,2252
1777572549012,2237
1777572548995,2222
1777572548997,2138
1777572548999,2064
1777572549001,2039
1777572549003,2058
1777572549005,2114
1777572549007,2177
1777572549009,2229
1777572549011,2258
1777572549013,2261
1777572549026,2216
1777572549028,2140
1777572549030,2060
1777572549032,2031
1777572549034,2054
1777572549036,2123
1777572549038,2196
1777572549040,2255
1777572549042,2283
1777572549044,2279
1777572549026,2215
1777572549028,2109
1777572549030,2023
1777572549032,2010
1777572549034,2031
1777572549036,2090
1777572549038,2151
1777572549040,2200
1777572549042,2229
1777572549044,2223
1777572549026,2178
1777572549028,2096
1777572549030,2029
1777572549032,1995
1777572549034,2014
1777572549036,2084
1777572549038,2161
1777572549040,2226
1777572549042,2257
1777572549044,2244
1777572549081,2190
1777572549083,2114
1777572549085,2032
1777572549087,1995
1777572549089,1990
1777572549091,2091
1777572549093,2172
1777572549095,2244
1777572549097,2287
1777572549099,2274
1777572549081,2208
1777572549083,2122
1777572549085,2039
1777572549087,1992
1777572549089,1996
1777572549091,2051
1777572549093,2120
1777572549095,2188
1777572549097,2237
1777572549099,2250
1777572549117,2215
1777572549119,2130
1777572549121,2043
1777572549123,1995
1777572549125,2002
1777572549127,2053
1777572549129,2118
1777572549131,2185
1777572549133,2249
1777572549135,2252
1777572549117,2207
1777572549119,2132
1777572549121,2058
1777572549123,2027
1777572549125,2047
1777572549127,2108
1777572549129,2174
1777572549131,2234
1777572549133,2267
1777572549135,2256
1777572549209,2211
1777572549211,2134
1777572549213,2051
1777572549215,2024
1777572549217,2044
1777572549219,2108
1777572549221,2184
1777572549223,2242
1777572549225,2273
1777572549227,2244
1777572549209,2225
1777572549211,2158
1777572549213,2094
1777572549215,2059
1777572549217,2065
1777572549219,2118
1777572549221,2203
1777572549223,2270
1777572549225,2301
1777572549227,2293
1777572549209,2245
1777572549211,2167
1777572549213,2088
1777572549215,2048
1777572549217,2072
1777572549219,2142
1777572549221,2228
1777572549223,2314
1777572549225,2366
1777572549227,2364
1777572549209,2309
1777572549211,2211
1777572549213,2135
1777572549215,2085
1777572549217,2087
1777572549219,2149
1777572549221,2228
1777572549223,2308
1777572549225,2366
1777572549227,2377
1777572549209,2347
1777572549211,2285
1777572549213,2222
1777572549215,2180
1777572549217,2187
1777572549219,2243
1777572549221,2312
1777572549223,2370
1777572549225,2411
1777572549227,2415
1777572549251,2381
1777572549253,2301
1777572549255,2214
1777572549257,2166
1777572549259,2157
1777572549261,2223
1777572549263,2332
1777572549265,2397
1777572549267,2434
1777572549269,2441
1777572549251,2414
1777572549253,2374
1777572549255,2339
1777572549257,2347
1777572549259,2396
1777572549261,2478
1777572549263,2570
1777572549265,2656
1777572549267,2716
1777572549269,2726
1777572549305,2691
1777572549307,2617
1777572549309,2539
1777572549311,2487
1777572549313,2504
1777572549315,2570
1777572549317,2637
1777572549319,2699
1777572549321,2755
1777572549323,2755
1777572549305,2710
1777572549307,2630
1777572549309,2543
1777572549311,2498
1777572549313,2504
1777572549315,2549
1777572549317,2601
1777572549319,2650
1777572549321,2668
1777572549323,2657
1777572549341,2612
1777572549343,2544
1777572549345,2474
1777572549347,2433
1777572549349,2432
1777572549351,2486
1777572549353,2543
1777572549355,2589
1777572549357,2611
1777572549359,2575
1777572549341,2554
1777572549343,2477
1777572549345,2403
1777572549347,2363
1777572549349,2360
1777572549351,2398
1777572549353,2454
1777572549355,2512
1777572549357,2557
1777572549359,2575
1777572549400,2544
1777572549402,2471
1777572549404,2396
1777572549406,2337
1777572549408,2315
1777572549410,2346
1777572549412,2404
1777572549414,2461
1777572549416,2497
1777572549418,2500
1777572549400,2460
1777572549402,2385
1777572549404,2306
1777572549406,2279
1777572549408,2273
1777572549410,2310
1777572549412,2357
1777572549414,2413
1777572549416,2455
1777572549418,2478
1777572549400,2470
1777572549402,2457
1777572549404,2455
1777572549406,2505
1777572549408,2606
1777572549410,2760
1777572549412,2933
1777572549414,3104
1777572549416,3252
1777572549418,3355
1777572549433,3392
1777572549435,3354
1777572549437,3252
1777572549439,3144
1777572549441,3043
1777572549443,3016
1777572549445,2971
1777572549447,2913
1777572549449,2846
1777572549451,2750
1777572549433,2625
1777572549435,2463
1777572549437,2293
1777572549439,2165
1777572549441,2110
1777572549443,2124
1777572549445,2167
1777572549447,2230
1777572549449,2272
1777572549451,2278
1777572549476,2247
1777572549478,2187
1777572549480,2131
1777572549482,2093
1777572549484,2103
1777572549486,2166
1777572549488,2231
1777572549490,2306
1777572549492,2381
1777572549494,2402
1777572549476,2379
1777572549478,2318
1777572549480,2237
1777572549482,2174
1777572549484,2169
1777572549486,2225
1777572549488,2308
1777572549490,2377
1777572549492,2426
1777572549494,2443
1777572549529,2413
1777572549531,2339
1777572549533,2257
1777572549535,2203
1777572549537,2196
1777572549539,2252
1777572549541,2331
1777572549543,2399
1777572549545,2445
1777572549547,2437
1777572549530,2433
1777572549532,2359
1777572549534,2275
1777572549536,2225
1777572549538,2218
1777572549540,2267
1777572549542,2335
1777572549544,2407
1777572549546,2469
1777572549548,2503
1777572549566,2504
1777572549568,2456
1777572549570,2382
1777572549572,2316
1777572549574,2299
1777572549576,2345
1777572549578,2411
1777572549580,2472
1777572549582,2507
1777572549584,2514
1777572549566,2487
1777572549568,2432
1777572549570,2368
1777572549572,2340
1777572549574,2339
1777572549576,2398
1777572549578,2474
1777572549580,2550
1777572549582,2607
1777572549584,2624
1777572549566,2590
1777572549568,2535
1777572549570,2465
1777572549572,2424
1777572549574,2434
1777572549576,2485
1777572549578,2552
1777572549580,2629
1777572549582,2683
1777572549584,2703
1777572549625,2680
1777572549627,2611
1777572549629,2523
1777572549631,2469
1777572549633,2448
1777572549635,2535
1777572549637,2625
1777572549639,2694
1777572549641,2755
1777572549643,2785
1777572549625,2771
1777572549627,2713
1777572549629,2638
1777572549631,2580
1777572549633,2581
1777572549635,2638
1777572549637,2710
1777572549639,2780
1777572549641,2836
1777572549643,2858
1777572549657,2841
1777572549659,2776
1777572549661,2679
1777572549663,2614
1777572549665,2600
1777572549667,2641
1777572549669,2699
1777572549671,2760
1777572549673,2808
1777572549675,2795
1777572549657,2745
1777572549659,2663
1777572549661,2572
1777572549663,2496
1777572549665,2455
1777572549667,2467
1777572549669,2523
1777572549671,2575
1777572549673,2611
1777572549675,2618
1777572549701,2579
1777572549703,2493
1777572549705,2400
1777572549707,2321
1777572549709,2289
1777572549711,2312
1777572549713,2365
1777572549715,2416
1777572549717,2455
1777572549719,2449
1777572549702,2448
1777572549704,2373
1777572549706,2278
1777572549708,2199
1777572549710,2169
1777572549712,2206
1777572549714,2268
1777572549716,2335
1777572549718,2388
1777572549720,2409
1777572549754,2382
1777572549756,2318
1777572549758,2234
1777572549760,2168
1777572549762,2155
1777572549764,2190
1777572549766,2251
1777572549768,2317
1777572549770,2363
1777572549772,2377
1777572549754,2355
1777572549756,2298
1777572549758,2230
1777572549760,2185
1777572549762,2173
1777572549764,2199
1777572549766,2244
1777572549768,2299
1777572549770,2355
1777572549772,2390
1777572549754,2382
1777572549756,2329
1777572549758,2248
1777572549760,2176
1777572549762,2157
1777572549764,2200
1777572549766,2272
1777572549768,2351
1777572549770,2415
1777572549772,2446
1777572549791,2437
1777572549793,2389
1777572549795,2300
1777572549797,2228
1777572549799,2183
1777572549801,2253
1777572549803,2328
1777572549805,2402
1777572549807,2461
1777572549809,2494
1777572549791,2487
1777572549793,2435
1777572549795,2363
1777572549797,2300
1777572549799,2276
1777572549801,2304
1777572549803,2371
1777572549805,2444
1777572549807,2499
1777572549809,2519
1777572549850,2498
1777572549852,2436
1777572549854,2354
1777572549856,2295
1777572549858,2284
1777572549860,2329
1777572549862,2394
1777572549864,2476
1777572549866,2552
1777572549868,2575
1777572549850,2557
1777572549852,2498
1777572549854,2419
1777572549856,2361
1777572549858,2350
1777572549860,2400
1777572549862,2480
1777572549864,2568
1777572549866,2634
1777572549868,2657
1777572549882,2635
1777572549884,2562
1777572549886,2468
1777572549888,2394
1777572549890,2369
1777572549892,2406
1777572549894,2472
1777572549896,2547
1777572549898,2617
1777572549900,2631
1777572549882,2646
1777572549884,2581
1777572549886,2485
1777572549888,2403
1777572549890,2380
1777572549892,2421
1777572549894,2493
1777572549896,2572
1777572549898,2632
1777572549900,2662
1777572549945,2646
1777572549947,2597
1777572549949,2515
1777572549951,2451
1777572549953,2429
1777572549955,2459
1777572549957,2518
1777572549959,2587
1777572549961,2638
1777572549963,2664
1777572549945,2652
1777572549947,2594
1777572549949,2517
1777572549951,2462
1777572549953,2441
1777572549955,2473
1777572549957,2536
1777572549959,2611
1777572549961,2672
1777572549963,2697
1777572549945,2686
1777572549947,2637
1777572549949,2553
1777572549951,2462
1777572549953,2418
1777572549955,2445
1777572549957,2521
1777572549959,2603
1777572549961,2656
1777572549963,2674
1777572549977,2652
1777572549979,2604
1777572549981,2518
1777572549983,2439
1777572549985,2396
1777572549987,2473
1777572549989,2553
1777572549991,2628
1777572549993,2680
1777572549995,2696
1777572549977,2674
1777572549979,2622
1777572549981,2549
1777572549983,2485
1777572549985,2458
1777572549987,2478
1777572549989,2537
1777572549991,2609
1777572549993,2670
1777572549995,2698
1777572550016,2682
1777572550018,2613
1777572550020,2522
1777572550022,2445
1777572550024,2411
1777572550026,2433
1777572550028,2499
1777572550030,2585
1777572550032,2672
1777572550034,2698
1777572550016,2686
1777572550018,2640
1777572550020,2570
1777572550022,2507
1777572550024,2489
1777572550026,2493
1777572550028,2546
1777572550030,2613
1777572550032,2671
1777572550034,2697
1777572550074,2679
1777572550076,2639
1777572550078,2563
1777572550080,2497
1777572550082,2473
1777572550084,2507
1777572550086,2565
1777572550088,2621
1777572550090,2680
1777572550092,2707
1777572550074,2743
1777572550076,2690
1777572550078,2599
1777572550080,2503
1777572550082,2457
1777572550084,2467
1777572550086,2521
1777572550088,2596
1777572550090,2671
1777572550092,2714
1777572550106,2718
1777572550108,2667
1777572550110,2583
1777572550112,2506
1777572550114,2475
1777572550116,2503
1777572550118,2563
1777572550120,2645
1777572550122,2713
1777572550124,2749
1777572550106,2739
1777572550108,2674
1777572550110,2581
1777572550112,2516
1777572550114,2473
1777572550116,2490
1777572550118,2545
1777572550120,2615
1777572550122,2671
1777572550124,2705
1777572550106,2702
1777572550108,2652
1777572550110,2568
1777572550112,2495
1777572550114,2468
1777572550116,2490
1777572550118,2564
1777572550120,2639
1777572550122,2694
1777572550124,2714
1777572550170,2701
1777572550172,2650
1777572550174,2569
1777572550176,2502
1777572550178,2442
1777572550180,2502
1777572550182,2580
1777572550184,2661
1777572550186,2725
1777572550188,2747
1777572550170,2730
1777572550172,2668
1777572550174,2571
1777572550176,2485
1777572550178,2440
1777572550180,2466
1777572550182,2535
1777572550184,2624
1777572550186,2702
1777572550188,2744
1777572550202,2736
1777572550204,2679
1777572550206,2595
1777572550208,2507
1777572550210,2452
1777572550212,2454
1777572550214,2500
1777572550216,2565
1777572550218,2638
1777572550220,2664
1777572550202,2643
1777572550204,2578
1777572550206,2486
1777572550208,2393
1777572550210,2350
1777572550212,2375
1777572550214,2433
1777572550216,2498
1777572550218,2549
1777572550220,2576
1777572550241,2560
1777572550243,2511
1777572550245,2433
1777572550247,2362
1777572550249,2337
1777572550251,2372
1777572550253,2445
1777572550255,2510
1777572550257,2557
1777572550259,2554
1777572550241,2572
1777572550243,2527
1777572550245,2449
1777572550247,2368
1777572550249,2319
1777572550251,2339
1777572550253,2407
1777572550255,2493
1777572550257,2567
1777572550259,2607
1777572550241,2606
1777572550243,2561
1777572550245,2479
1777572550247,2391
1777572550249,2336
1777572550251,2340
1777572550253,2394
1777572550255,2471
1777572550257,2538
1777572550259,2590
1777572550302,2597
1777572550304,2555
1777572550306,2493
1777572550308,2483
1777572550310,2484
1777572550312,2564
1777572550314,2712
1777572550316,2893
1777572550318,3079
1777572550320,3244
1777572550302,3364
1777572550304,3419
1777572550306,3405
1777572550308,3352
1777572550310,3295
1777572550312,3250
1777572550314,3222
1777572550316,3173
1777572550318,3084
1777572550320,2963
1777572550333,2816
1777572550335,2642
1777572550337,2459
1777572550339,2298
1777572550341,2158
1777572550343,2149
1777572550345,2166
1777572550347,2205
1777572550349,2240
1777572550351,2253
1777572550333,2238
1777572550335,2183
1777572550337,2094
1777572550339,2003
1777572550341,1957
1777572550343,1987
1777572550345,2066
1777572550347,2162
1777572550349,2251
1777572550351,2309
1777572550397,2319
1777572550399,2299
1777572550401,2237
1777572550403,2171
1777572550405,2137
1777572550407,2142
1777572550409,2184
1777572550411,2247
1777572550413,2328
1777572550415,2360
1777572550397,2360
1777572550399,2323
1777572550401,2246
1777572550403,2156
1777572550405,2122
1777572550407,2144
1777572550409,2210
1777572550411,2279
1777572550413,2338
1777572550415,2376
1777572550429,2382
1777572550431,2338
1777572550433,2250
1777572550435,2163
1777572550437,2119
1777572550439,2134
1777572550441,2185
1777572550443,2262
1777572550445,2331
1777572550447,2355
1777572550429,2391
1777572550431,2341
1777572550433,2250
1777572550435,2161
1777572550437,2108
1777572550439,2124
1777572550441,2190
1777572550443,2267
1777572550445,2338
1777572550447,2398
1777572550429,2417
1777572550431,2386
1777572550433,2312
1777572550435,2229
1777572550437,2170
1777572550439,2178
1777572550441,2246
1777572550443,2322
1777572550445,2385
1777572550447,2423
1777572550466,2418
1777572550468,2371
1777572550470,2285
1777572550472,2226
1777572550474,2171
1777572550476,2185
1777572550478,2238
1777572550480,2311
1777572550482,2390
1777572550484,2459
1777572550466,2492
1777572550468,2470
1777572550470,2396
1777572550472,2308
1777572550474,2248
1777572550476,2262
1777572550478,2326
1777572550480,2408
1777572550482,2479
1777572550484,2523
1777572550524,2535
1777572550526,2494
1777572550528,2418
1777572550530,2340
1777572550532,2285
1777572550534,2330
1777572550536,2381
1777572550538,2456
1777572550540,2524
1777572550542,2574
1777572550525,2585
1777572550527,2538
1777572550529,2453
1777572550531,2354
1777572550533,2284
1777572550535,2273
1777572550537,2313
1777572550539,2382
1777572550541,2446
1777572550543,2486
1777572550556,2480
1777572550558,2429
1777572550560,2342
1777572550562,2238
1777572550564,2157
1777572550566,2130
1777572550568,2140
1777572550570,2183
1777572550572,2238
1777572550574,2249
1777572550556,2225
1777572550558,2159
1777572550560,2056
1777572550562,1945
1777572550564,1874
1777572550566,1865
1777572550568,1905
1777572550570,1967
1777572550572,2016
1777572550574,2040
1777572550620,2029
1777572550622,1978
1777572550624,1891
1777572550626,1796
1777572550628,1733
1777572550630,1724
1777572550632,1761
1777572550634,1826
1777572550636,1883
1777572550638,1899
1777572550620,1919
1777572550622,1863
1777572550624,1773
1777572550626,1686
1777572550628,1616
1777572550630,1598
1777572550632,1637
1777572550634,1712
1777572550636,1785
1777572550638,1842
1777572550620,1868
1777572550622,1842
1777572550624,1751
1777572550626,1636
1777572550628,1546
1777572550630,1521
1777572550632,1557
1777572550634,1629
1777572550636,1702
1777572550638,1744
1777572550672,1736
1777572550674,1680
1777572550676,1587
1777572550678,1537
1777572550680,1491
1777572550682,1501
1777572550684,1561
1777572550686,1639
1777572550688,1705
1777572550690,1745
1777572550672,1749
1777572550674,1710
1777572550676,1636
1777572550678,1556
1777572550680,1498
1777572550682,1511
1777572550684,1572
1777572550686,1654
1777572550688,1725
1777572550690,1762
1777572550716,1749
1777572550718,1696
1777572550720,1625
1777572550722,1547
1777572550724,1470
1777572550726,1504
1777572550728,1554
1777572550730,1619
1777572550732,1683
1777572550734,1727
1777572550716,1741
1777572550718,1717
1777572550720,1648
1777572550722,1559
1777572550724,1497
1777572550726,1490
1777572550728,1538
1777572550730,1624
1777572550732,1702
1777572550734,1751
1777572550759,1759
1777572550761,1726
1777572550763,1649
1777572550765,1559
1777572550767,1499
1777572550769,1492
1777572550771,1538
1777572550773,1628
1777572550775,1735
1777572550777,1791
1777572550759,1813
1777572550761,1785
1777572550763,1709
1777572550765,1626
1777572550767,1559
1777572550769,1549
1777572550771,1593
1777572550773,1673
1777572550775,1749
1777572550777,1806
1777572550806,1823
1777572550808,1789
1777572550810,1712
1777572550812,1616
1777572550814,1545
1777572550816,1532
1777572550818,1577
1777572550820,1655
1777572550822,1728
1777572550824,1765
1777572550806,1818
1777572550808,1789
1777572550810,1714
1777572550812,1622
1777572550814,1558
1777572550816,1558
1777572550818,1607
1777572550820,1684
1777572550822,1752
1777572550824,1795
1777572550806,1802
1777572550808,1769
1777572550810,1696
1777572550812,1599
1777572550814,1523
1777572550816,1516
1777572550818,1570
1777572550820,1654
1777572550822,1733
1777572550824,1796
1777572550829,1817
1777572550831,1788
1777572550833,1702
1777572550835,1631
1777572550837,1553
1777572550839,1535
1777572550841,1577
1777572550843,1653
1777572550845,1731
1777572550847,1783
1777572550829,1800
1777572550831,1768
1777572550833,1687
1777572550835,1587
1777572550837,1504
1777572550839,1486
1777572550841,1524
1777572550843,1604
1777572550845,1692
1777572550847,1757
1777572550880,1766
1777572550882,1736
1777572550884,1670
1777572550886,1594
1777572550888,1518
1777572550890,1540
1777572550892,1589
1777572550894,1660
1777572550896,1719
1777572550898,1750
1777572550880,1753
1777572550882,1720
1777572550884,1644
1777572550886,1561
1777572550888,1506
1777572550890,1505
1777572550892,1548
1777572550894,1607
1777572550896,1660
1777572550898,1703
1777572550916,1724
1777572550918,1709
1777572550920,1645
1777572550922,1554
1777572550924,1480
1777572550926,1454
1777572550928,1476
1777572550930,1543
1777572550932,1630
1777572550934,1682
1777572550916,1708
1777572550918,1691
1777572550920,1624
1777572550922,1548
1777572550924,1483
1777572550926,1472
1777572550928,1520
1777572550930,1606
1777572550932,1689
1777572550934,1743
1777572550965,1770
1777572550967,1763
1777572550969,1719
1777572550971,1655
1777572550973,1603
1777572550975,1597
1777572550977,1657
1777572550979,1751
1777572550981,1842
1777572550983,1891
1777572550966,1949
1777572550968,1934
1777572550970,1873
1777572550972,1779
1777572550974,1699
1777572550976,1678
1777572550978,1719
1777572550980,1793
1777572550982,1869
1777572550984,1925
1777572550966,1945
1777572550968,1918
1777572550970,1856
1777572550972,1779
1777572550974,1709
1777572550976,1695
1777572550978,1726
1777572550980,1790
1777572550982,1864
1777572550984,1911
1777572551008,1906
1777572551010,1859
1777572551012,1770
1777572551014,1703
1777572551016,1628
1777572551018,1615
1777572551020,1660
1777572551022,1738
1777572551024,1817
1777572551026,1877
1777572551072,1895
1777572551074,1869
1777572551076,1802
1777572551078,1710
1777572551080,1633
1777572551082,1598
1777572551084,1621
1777572551086,1687
1777572551088,1764
1777572551090,1831
1777572551072,1870
1777572551074,1859
1777572551076,1784
1777572551078,1683
1777572551080,1595
1777572551082,1594
1777572551084,1629
1777572551086,1712
1777572551088,1790
1777572551090,1850
1777572551072,1869
1777572551074,1842
1777572551076,1767
1777572551078,1674
1777572551080,1591
1777572551082,1568
1777572551084,1607
1777572551086,1692
1777572551088,1775
1777572551090,1842
1777572551103,1869
1777572551105,1854
1777572551107,1801
1777572551109,1740
1777572551111,1710
1777572551113,1741
1777572551115,1845
1777572551117,2003
1777572551119,2212
1777572551121,2373
1777572551103,2500
1777572551105,2585
1777572551107,2610
1777572551109,2582
1777572551111,2529
1777572551113,2490
1777572551115,2466
1777572551117,2447
1777572551119,2405
1777572551121,2328
1777572551141,2217
1777572551143,2066
1777572551145,1887
1777572551147,1699
1777572551149,1544
1777572551151,1458
1777572551153,1446
1777572551155,1482
1777572551157,1539
1777572551159,1575
1777572551141,1644
1777572551143,1621
1777572551145,1567
1777572551147,1489
1777572551149,1426
1777572551151,1426
1777572551153,1484
1777572551155,1580
1777572551157,1689
1777572551159,1785
1777572551141,1843
1777572551143,1842
1777572551145,1792
1777572551147,1722
1777572551149,1660
1777572551151,1651
1777572551153,1707
1777572551155,1800
1777572551157,1878
1777572551159,1931
1777572551190,1945
1777572551192,1928
1777572551194,1864
1777572551196,1809
1777572551198,1735
1777572551200,1705
1777572551202,1735
1777572551204,1811
1777572551206,1898
1777572551208,1980
1777572551234,2028
1777572551236,2028
1777572551238,1979
1777572551240,1901
1777572551242,1827
1777572551244,1806
1777572551246,1847
1777572551248,1927
1777572551250,2016
1777572551252,2083
1777572551234,2110
1777572551236,2105
1777572551238,2056
1777572551240,1976
1777572551242,1879
1777572551244,1855
1777572551246,1869
1777572551248,1936
1777572551250,2017
1777572551252,2086
1777572551234,2130
1777572551236,2129
1777572551238,2074
1777572551240,2000
1777572551242,1931
1777572551244,1916
1777572551246,1960
1777572551248,2042
1777572551250,2132
1777572551252,2204
1777572551296,2252
1777572551298,2270
1777572551300,2226
1777572551302,2137
1777572551304,2052
1777572551306,2020
1777572551308,2052
1777572551310,2121
1777572551312,2241
1777572551314,2314
1777572551296,2353
1777572551298,2351
1777572551300,2321
1777572551302,2260
1777572551304,2200
1777572551306,2183
1777572551308,2227
1777572551310,2307
1777572551312,2393
1777572551314,2466
1777572551328,2508
1777572551330,2513
1777572551332,2474
1777572551334,2408
1777572551336,2341
1777572551338,2318
1777572551340,2349
1777572551342,2418
1777572551344,2504
1777572551346,2559
1777572551328,2622
1777572551330,2612
1777572551332,2555
1777572551334,2471
1777572551336,2389
1777572551338,2362
1777572551340,2388
1777572551342,2450
1777572551344,2515
1777572551346,2558
1777572551366,2587
1777572551368,2568
1777572551370,2494
1777572551372,2388
1777572551374,2300
1777572551376,2255
1777572551378,2263
1777572551380,2310
1777572551382,2356
1777572551384,2383
1777572551366,2377
1777572551368,2344
1777572551370,2274
1777572551372,2185
1777572551374,2080
1777572551376,2027
1777572551378,2026
1777572551380,2089
1777572551382,2172
1777572551384,2240
1777572551424,2268
1777572551426,2253
1777572551428,2193
1777572551430,2109
1777572551432,2009
1777572551434,1964
1777572551436,1978
1777572551438,2035
1777572551440,2109
1777572551442,2164
1777572551424,2200
1777572551426,2193
1777572551428,2140
1777572551430,2060
1777572551432,1957
1777572551434,1944
1777572551436,1958
1777572551438,2013
1777572551440,2086
1777572551442,2149
1777572551424,2187
1777572551426,2186
1777572551428,2132
1777572551430,2045
1777572551432,1960
1777572551434,1922
1777572551436,1947
1777572551438,2025
1777572551440,2124
1777572551442,2202
1777572551457,2251
1777572551459,2254
1777572551461,2209
1777572551463,2133
1777572551465,2053
1777572551467,2015
1777572551469,2035
1777572551471,2095
1777572551473,2206
1777572551475,2262
1777572551457,2293
1777572551459,2290
1777572551461,2248
1777572551463,2165
1777572551465,2081
1777572551467,2053
1777572551469,2081
1777572551471,2151
1777572551473,2239
1777572551475,2316
1777572551520,2357
1777572551522,2358
1777572551524,2318
1777572551526,2248
1777572551528,2186
1777572551530,2168
1777572551532,2194
1777572551534,2257
1777572551536,2334
1777572551538,2387
1777572551520,2463
1777572551522,2474
1777572551524,2424
1777572551526,2338
1777572551528,2256
1777572551530,2217
1777572551532,2240
1777572551534,2314
1777572551536,2390
1777572551538,2455
1777572551552,2494
1777572551554,2493
1777572551556,2444
1777572551558,2370
1777572551560,2307
1777572551562,2287
1777572551564,2322
1777572551566,2385
1777572551568,2455
1777572551570,2513
1777572551552,2545
1777572551554,2539
1777572551556,2496
1777572551558,2447
1777572551560,2370
1777572551562,2341
1777572551564,2367
1777572551566,2441
1777572551568,2522
1777572551570,2591
1777572551591,2630
1777572551593,2638
1777572551595,2598
1777572551597,2519
1777572551599,2432
1777572551601,2396
1777572551603,2422
1777572551605,2500
1777572551607,2581
1777572551609,2643
1777572551591,2686
1777572551593,2685
1777572551595,2621
1777572551597,2524
1777572551599,2405
1777572551601,2387
1777572551603,2401
1777572551605,2466
1777572551607,2557
1777572551609,2643
1777572551591,2695
1777572551593,2692
1777572551595,2636
1777572551597,2543
1777572551599,2462
1777572551601,2428
1777572551603,2443
1777572551605,2493
1777572551607,2571
1777572551609,2644
1777572551647,2686
1777572551649,2682
1777572551651,2637
1777572551653,2562
1777572551655,2487
1777572551657,2454
1777572551659,2461
1777572551661,2505
1777572551663,2620
1777572551665,2690
1777572551647,2724
1777572551649,2722
1777572551651,2681
1777572551653,2600
1777572551655,2512
1777572551657,2456
1777572551659,2462
1777572551661,2530
1777572551663,2615
1777572551665,2688
1777572551681,2739
1777572551683,2747
1777572551685,2704
1777572551687,2612
1777572551689,2529
1777572551691,2484
1777572551693,2493
1777572551695,2543
1777572551697,2620
1777572551699,2668
1777572551681,2747
1777572551683,2743
1777572551685,2691
1777572551687,2607
1777572551689,2518
1777572551691,2478
1777572551693,2484
1777572551695,2559
1777572551697,2660
1777572551699,2741
1777572551744,2783
1777572551746,2777
1777572551748,2719
1777572551750,2641
1777572551752,2548
1777572551754,2494
1777572551756,2506
1777572551758,2581
1777572551760,2668
1777572551762,2735
1777572551744,2769
1777572551746,2750
1777572551748,2694
1777572551750,2637
1777572551752,2556
1777572551754,2507
1777572551756,2523
1777572551758,2581
1777572551760,2653
1777572551762,2722
1777572551744,2781
1777572551746,2800
1777572551748,2762
1777572551750,2680
1777572551752,2589
1777572551754,2550
1777572551756,2569
1777572551758,2632
1777572551760,2717
1777572551762,2796
1777572551775,2847
1777572551777,2855
1777572551779,2816
1777572551781,2753
1777572551783,2651
1777572551785,2639
1777572551787,2658
1777572551789,2709
1777572551791,2786
1777572551793,2854
1777572551775,2890
1777572551777,2884
1777572551779,2841
1777572551781,2760
1777572551783,2667
1777572551785,2616
1777572551787,2624
1777572551789,2681
1777572551791,2753
1777572551793,2821
1777572551816,2857
1777572551818,2855
1777572551820,2814
1777572551822,2736
1777572551824,2640
1777572551826,2581
1777572551828,2566
1777572551830,2608
1777572551832,2718
1777572551834,2796
1777572551816,2830
1777572551818,2834
1777572551820,2796
1777572551822,2722
1777572551824,2636
1777572551826,2591
1777572551828,2607
1777572551830,2659
1777572551832,2727
1777572551834,2789
1777572551872,2832
1777572551874,2834
1777572551876,2790
1777572551878,2702
1777572551880,2610
1777572551882,2551
1777572551884,2558
1777572551886,2615
1777572551888,2691
1777572551890,2738
1777572551872,2815
1777572551874,2834
1777572551876,2802
1777572551878,2722
1777572551880,2635
1777572551882,2592
1777572551884,2592
1777572551886,2645
1777572551888,2712
1777572551890,2765
1777572551906,2793
1777572551908,2789
1777572551910,2739
1777572551912,2672
1777572551914,2601
1777572551916,2573
1777572551918,2611
1777572551920,2705
1777572551922,2827
1777572551924,2945
1777572551907,3041
1777572551909,3122
1777572551911,3173
1777572551913,3222
1777572551915,3234
1777572551917,3274
1777572551919,3386
1777572551921,3543
1777572551923,3698
1777572551925,3806
1777572551907,3827
1777572551909,3742
1777572551911,3580
1777572551913,3363
1777572551915,3140
1777572551917,2968
1777572551919,2865
1777572551921,2823
1777572551923,2812
1777572551925,2808
1777572551955,2798
1777572551957,2745
1777572551959,2657
1777572551961,2545
1777572551963,2407
1777572551965,2371
1777572551967,2373
1777572551969,2429
1777572551971,2520
1777572551973,2605
1777572551955,2652
1777572551957,2666
1777572551959,2645
1777572551961,2585
1777572551963,2514
1777572551965,2476
1777572551967,2489
1777572551969,2544
1777572551971,2631
1777572551973,2723
1777572551997,2786
1777572551999,2808
1777572552001,2780
1777572552003,2701
1777572552005,2611
1777572552007,2557
1777572552009,2560
1777572552011,2612
1777572552013,2708
1777572552015,2785
1777572551997,2845
1777572551999,2861
1777572552001,2827
1777572552003,2751
1777572552005,2660
1777572552007,2597
1777572552009,2589
1777572552011,2642
1777572552013,2717
1777572552015,2794
1777572552062,2853
1777572552064,2872
1777572552066,2836
1777572552068,2758
1777572552070,2657
1777572552072,2586
1777572552074,2575
1777572552076,2625
1777572552078,2703
1777572552080,2764
1777572552062,2848
1777572552064,2871
1777572552066,2844
1777572552068,2771
1777572552070,2683
1777572552072,2615
1777572552074,2609
1777572552076,2658
1777572552078,2730
1777572552080,2801
1777572552093,2853
1777572552095,2855
1777572552097,2821
1777572552099,2759
1777572552101,2678
1777572552103,2631
1777572552105,2631
1777572552107,2682
1777572552109,2768
1777572552111,2860
1777572552093,2918
1777572552095,2920
1777572552097,2886
1777572552099,2837
1777572552101,2750
1777572552103,2691
1777572552105,2677
1777572552107,2721
1777572552109,2796
1777572552111,2883
1777572552093,2954
1777572552095,2982
1777572552097,2956
1777572552099,2884
1777572552101,2797
1777572552103,2741
1777572552105,2742
1777572552107,2800
1777572552109,2874
1777572552111,2939
1777572552131,2991
1777572552133,3007
1777572552135,2974
1777572552137,2890
1777572552139,2778
1777572552141,2742
1777572552143,2741
1777572552145,2789
1777572552147,2871
1777572552149,2948
1777572552131,2995
1777572552133,3004
1777572552135,2957
1777572552137,2865
1777572552139,2753
1777572552141,2673
1777572552143,2647
1777572552145,2674
1777572552147,2727
1777572552149,2775
1777572552222,2804
1777572552224,2802
1777572552226,2763
1777572552228,2669
1777572552230,2560
1777572552232,2481
1777572552234,2457
1777572552236,2484
1777572552238,2554
1777572552240,2601
1777572552222,2628
1777572552224,2617
1777572552226,2562
1777572552228,2471
1777572552230,2367
1777572552232,2290
1777572552234,2270
1777572552236,2312
1777572552238,2367
1777572552240,2418
1777572552222,2457
1777572552224,2467
1777572552226,2441
1777572552228,2380
1777572552230,2294
1777572552232,2218
1777572552234,2188
1777572552236,2221
1777572552238,2294
1777572552240,2356
1777572552222,2405
1777572552224,2404
1777572552226,2365
1777572552228,2294
1777572552230,2205
1777572552232,2138
1777572552234,2127
1777572552236,2167
1777572552238,2233
1777572552240,2297
1777572552358,2350
1777572552360,2353
1777572552362,2319
1777572552364,2241
1777572552366,2151
1777572552368,2078
1777572552370,2052
1777572552372,2078
1777572552374,2138
1777572552376,2209
1777572552358,2259
1777572552360,2275
1777572552362,2225
1777572552364,2184
1777572552366,2089
1777572552368,2031
1777572552370,2028
1777572552372,2079
1777572552374,2147
1777572552376,2213
1777572552358,2257
1777572552360,2271
1777572552362,2236
1777572552364,2159
1777572552366,2066
1777572552368,1991
1777572552370,1968
1777572552372,2009
1777572552374,2085
1777572552376,2160
1777572552358,2215
1777572552360,2234
1777572552362,2186
1777572552364,2100
1777572552366,2000
1777572552368,1966
1777572552370,1953
1777572552372,1994
1777572552374,2072
1777572552376,2146
1777572552358,2194
1777572552360,2215
1777572552362,2200
1777572552364,2136
1777572552366,2038
1777572552368,1958
1777572552370,1927
1777572552372,1958
1777572552374,2014
1777572552376,2075
1777572552358,2132
1777572552360,2156
1777572552362,2129
1777572552364,2047
1777572552366,1955
1777572552368,1894
1777572552370,1882
1777572552372,1927
1777572552374,2017
1777572552376,2096
1777572552360,2144
1777572552362,2145
1777572552364,2106
1777572552366,2026
1777572552368,1926
1777572552370,1842
1777572552372,1817
1777572552374,1847
1777572552376,1924
1777572552378,2001
1777572552415,2056
1777572552417,2068
1777572552419,2046
1777572552421,1975
1777572552423,1874
1777572552425,1790
1777572552427,1755
1777572552429,1773
1777572552431,1835
1777572552433,1884
1777572552415,1917
1777572552417,1951
1777572552419,1924
1777572552421,1855
1777572552423,1770
1777572552425,1710
1777572552427,1676
1777572552429,1694
1777572552431,1759
1777572552433,1830
1777572552447,1878
1777572552449,1884
1777572552451,1853
1777572552453,1788
1777572552455,1696
1777572552457,1611
1777572552459,1573
1777572552461,1598
1777572552463,1665
1777572552465,1736
1777572552447,1786
1777572552449,1804
1777572552451,1773
1777572552453,1727
1777572552455,1632
1777572552457,1554
1777572552459,1520
1777572552461,1555
1777572552463,1629
1777572552465,1709
1777572552447,1757
1777572552449,1772
1777572552451,1735
1777572552453,1652
1777572552455,1551
1777572552457,1475
1777572552459,1451
1777572552461,1480
1777572552463,1537
1777572552465,1596
1777572552510,1641
1777572552512,1649
1777572552514,1607
1777572552516,1541
1777572552518,1436
1777572552520,1388
1777572552522,1361
1777572552524,1371
1777572552526,1416
1777572552528,1472
1777572552510,1509
1777572552512,1509
1777572552514,1468
1777572552516,1399
1777572552518,1317
1777572552520,1259
1777572552522,1250
1777572552524,1286
1777572552526,1338
1777572552528,1394
1777572552561,1434
1777572552563,1450
1777572552565,1420
1777572552567,1348
1777572552569,1252
1777572552571,1178
1777572552573,1146
1777572552575,1172
1777572552577,1264
1777572552579,1340
1777572552561,1394
1777572552563,1414
1777572552565,1386
1777572552567,1312
1777572552569,1204
1777572552571,1113
1777572552573,1086
1777572552575,1114
1777572552577,1176
1777572552579,1240
1777572552596,1286
1777572552598,1289
1777572552600,1252
1777572552602,1180
1777572552604,1095
1777572552606,1019
1777572552608,994
1777572552610,1019
1777572552612,1086
1777572552614,1135
1777572552596,1214
1777572552598,1231
1777572552600,1201
1777572552602,1131
1777572552604,1024
1777572552606,941
1777572552608,905
1777572552610,931
1777572552612,993
1777572552614,1065
1777572552630,1113
1777572552632,1130
1777572552634,1103
1777572552636,1038
1777572552638,947
1777572552640,876
1777572552642,860
1777572552644,894
1777572552646,960
1777572552648,1029
1777572552630,1070
1777572552632,1076
1777572552634,1041
1777572552636,986
1777572552638,900
1777572552640,822
1777572552642,800
1777572552644,828
1777572552646,885
1777572552648,944
1777572552630,991
1777572552632,1008
1777572552634,984
1777572552636,919
1777572552638,837
1777572552640,766
1777572552642,729
1777572552644,758
1777572552646,821
1777572552648,892
1777572552679,942
1777572552681,948
1777572552683,899
1777572552685,820
1777572552687,697
1777572552689,639
1777572552691,614
1777572552693,636
1777572552695,700
1777572552697,762
1777572552679,798
1777572552681,810
1777572552683,788
1777572552685,729
1777572552687,650
1777572552689,572
1777572552691,539
1777572552693,553
1777572552695,605
1777572552697,669
1777572552730,725
1777572552732,748
1777572552734,731
1777572552736,672
1777572552738,577
1777572552740,483
1777572552742,435
1777572552744,438
1777572552746,508
1777572552748,566
1777572552730,618
1777572552732,650
1777572552734,643
1777572552736,590
1777572552738,499
1777572552740,430
1777572552742,401
1777572552744,421
1777572552746,478
1777572552748,539
1777572552778,589
1777572552780,601
1777572552782,574
1777572552784,506
1777572552786,423
1777572552788,365
1777572552790,356
1777572552792,403
1777572552794,499
1777572552796,614
1777572552778,794
1777572552780,932
1777572552782,1033
1777572552784,1088
1777572552786,1102
1777572552788,1120
1777572552790,1162
1777572552792,1232
1777572552794,1325
1777572552796,1394
1777572552811,1403
1777572552813,1352
1777572552815,1227
1777572552817,1050
1777572552819,854
1777572552821,675
1777572552823,546
1777572552825,476
1777572552827,452
1777572552829,450
1777572552811,436
1777572552813,399
1777572552815,333
1777572552817,280
1777572552819,198
1777572552821,129
1777572552823,98
1777572552825,123
1777572552827,186
1777572552829,263
1777572552811,323
1777572552813,359
1777572552815,356
1777572552817,315
1777572552819,242
1777572552821,181
1777572552823,168
1777572552825,211
1777572552827,276
1777572552829,339
1777572552861,387
1777572552863,396
1777572552865,370
1777572552867,329
1777572552869,242
1777572552871,217
1777572552873,204
1777572552875,225
1777572552877,286
1777572552879,362
1777572552861,426
1777572552863,458
1777572552865,449
1777572552867,405
1777572552869,336
1777572552871,268
1777572552873,236
1777572552875,254
1777572552877,312
1777572552879,380
1777572552899,442
1777572552901,471
1777572552903,457
1777572552905,396
1777572552907,314
1777572552909,244
1777572552911,213
1777572552913,234
1777572552915,328
1777572552917,400
1777572552899,447
1777572552901,462
1777572552903,452
1777572552905,409
1777572552907,337
1777572552909,274
1777572552911,245
1777572552913,264
1777572552915,327
1777572552917,408
1777572552952,473
1777572552954,517
1777572552956,520
1777572552958,483
1777572552960,420
1777572552962,357
1777572552964,320
1777572552966,337
1777572552968,402
1777572552970,464
1777572552953,578
1777572552955,630
1777572552957,630
1777572552959,576
1777572552961,496
1777572552963,424
1777572552965,386
1777572552967,408
1777572552969,485
1777572552971,585
1777572552986,666
1777572552988,710
1777572552990,706
1777572552992,655
1777572552994,578
1777572552996,507
1777572552998,466
1777572553000,498
1777572553002,583
1777572553004,673
1777572552986,737
1777572552988,780
1777572552990,776
1777572552992,755
1777572552994,679
1777572552996,607
1777572552998,579
1777572553000,605
1777572553002,668
1777572553004,736
1777572552986,790
1777572552988,819
1777572552990,812
1777572552992,757
1777572552994,674
1777572552996,589
1777572552998,551
1777572553000,558
1777572553002,606
1777572553004,674
1777572553032,733
1777572553034,752
1777572553036,710
1777572553038,630
1777572553040,495
1777572553042,419
1777572553044,378
1777572553046,381
1777572553048,427
1777572553050,476
1777572553032,523
1777572553034,546
1777572553036,532
1777572553038,482
1777572553040,400
1777572553042,333
1777572553044,284
1777572553046,291
1777572553048,337
1777572553050,390
1777572553080,445
1777572553082,476
1777572553084,471
1777572553086,424
1777572553088,341
1777572553090,251
1777572553092,202
1777572553094,207
1777572553096,296
1777572553098,384
1777572553080,464
1777572553082,512
1777572553084,514
1777572553086,471
1777572553088,378
1777572553090,289
1777572553092,259
1777572553094,292
1777572553096,361
1777572553098,437
1777572553121,501
1777572553123,547
1777572553125,543
1777572553127,494
1777572553129,420
1777572553131,354
1777572553133,329
1777572553135,346
1777572553137,401
1777572553139,455
1777572553121,561
1777572553123,607
1777572553125,597
1777572553127,544
1777572553129,464
1777572553131,394
1777572553133,362
1777572553135,384
1777572553137,449
1777572553139,527
1777572553121,605
1777572553123,657
1777572553125,669
1777572553127,633
1777572553129,560
1777572553131,487
1777572553133,448
1777572553135,473
1777572553137,539
1777572553139,608
1777572553180,658
1777572553182,683
1777572553184,656
1777572553186,648
1777572553188,576
1777572553190,508
1777572553192,477
1777572553194,493
1777572553196,557
1777572553198,649
1777572553180,752
1777572553182,832
1777572553184,856
1777572553186,823
1777572553188,736
1777572553190,647
1777572553192,605
1777572553194,620
1777572553196,683
1777572553198,762
1777572553212,827
1777572553214,863
1777572553216,869
1777572553218,837
1777572553220,752
1777572553222,715
1777572553224,683
1777572553226,711
1777572553228,773
1777572553230,842
1777572553212,908
1777572553214,951
1777572553216,954
1777572553218,913
1777572553220,838
1777572553222,768
1777572553224,730
1777572553226,755
1777572553228,827
1777572553230,915
1777572553256,993
1777572553258,1050
1777572553260,1065
1777572553262,1033
1777572553264,965
1777572553266,889
1777572553268,849
1777572553270,864
1777572553272,951
1777572553274,1026
1777572553256,1107
1777572553258,1165
1777572553260,1173
1777572553262,1119
1777572553264,1043
1777572553266,972
1777572553268,941
1777572553270,953
1777572553272,1003
1777572553274,1077
1777572553308,1150
1777572553310,1202
1777572553312,1229
1777572553314,1216
1777572553316,1156
1777572553318,1075
1777572553320,1016
1777572553322,1024
1777572553324,1083
1777572553326,1149
1777572553308,1253
1777572553310,1297
1777572553312,1290
1777572553314,1255
1777572553316,1181
1777572553318,1106
1777572553320,1066
1777572553322,1078
1777572553324,1134
1777572553326,1219
1777572553308,1310
1777572553310,1379
1777572553312,1402
1777572553314,1369
1777572553316,1296
1777572553318,1215
1777572553320,1177
1777572553322,1193
1777572553324,1246
1777572553326,1311
1777572553347,1364
1777572553349,1402
1777572553351,1385
1777572553353,1377
1777572553355,1309
1777572553357,1246
1777572553359,1219
1777572553361,1255
1777572553363,1330
1777572553365,1409
1777572553347,1480
1777572553349,1528
1777572553351,1534
1777572553353,1494
1777572553355,1410
1777572553357,1328
1777572553359,1285
1777572553361,1310
1777572553363,1382
1777572553365,1468
1777572553405,1547
1777572553407,1595
1777572553409,1601
1777572553411,1561
1777572553413,1474
1777572553415,1444
1777572553417,1412
1777572553419,1421
1777572553421,1476
1777572553423,1560
1777572553405,1638
1777572553407,1688
1777572553409,1697
1777572553411,1651
1777572553413,1569
1777572553415,1493
1777572553417,1444
1777572553419,1455
1777572553421,1522
1777572553423,1613
1777572553437,1688
1777572553439,1750
1777572553441,1766
1777572553443,1732
1777572553445,1654
1777572553447,1579
1777572553449,1539
1777572553451,1554
1777572553453,1637
1777572553455,1713
1777572553437,1791
1777572553439,1852
1777572553441,1874
1777572553443,1849
1777572553445,1787
1777572553447,1705
1777572553449,1644
1777572553451,1646
1777572553453,1707
1777572553455,1791
1777572553481,1863
1777572553483,1909
1777572553485,1911
1777572553487,1879
1777572553489,1821
1777572553491,1759
1777572553493,1715
1777572553495,1727
1777572553497,1783
1777572553499,1840
1777572553481,1938
1777572553483,1994
1777572553485,2006
1777572553487,1981
1777572553489,1912
1777572553491,1839
1777572553493,1794
1777572553495,1811
1777572553497,1882
1777572553499,1965
1777572553482,2038
1777572553484,2093
1777572553486,2112
1777572553488,2080
1777572553490,2008
1777572553492,1929
1777572553494,1889
1777572553496,1897
1777572553498,1950
1777572553500,2025
1777572553532,2093
1777572553534,2150
1777572553536,2155
1777572553538,2165
1777572553540,2103
1777572553542,2033
1777572553544,1993
1777572553546,1998
1777572553548,2059
1777572553550,2138
1777572553532,2216
1777572553534,2274
1777572553536,2297
1777572553538,2272
1777572553540,2196
1777572553542,2124
1777572553544,2080
1777572553546,2085
1777572553548,2131
1777572553550,2197
1777572553571,2263
1777572553573,2313
1777572553575,2339
1777572553577,2317
1777572553579,2230
1777572553581,2171
1777572553583,2096
1777572553585,2079
1777572553587,2122
1777572553589,2195
1777572553571,2268
1777572553573,2319
1777572553575,2334
1777572553577,2299
1777572553579,2242
1777572553581,2171
1777572553583,2118
1777572553585,2114
1777572553587,2155
1777572553589,2222
1777572553629,2292
1777572553631,2342
1777572553633,2346
1777572553635,2312
1777572553637,2246
1777572553639,2174
1777572553641,2144
1777572553643,2167
1777572553645,2253
1777572553647,2325
1777572553629,2392
1777572553631,2440
1777572553633,2447
1777572553635,2409
1777572553637,2330
1777572553639,2251
1777572553641,2194
1777572553643,2198
1777572553645,2262
1777572553647,2354
1777572553661,2432
1777572553663,2478
1777572553665,2479
1777572553667,2439
1777572553669,2362
1777572553671,2269
1777572553673,2207
1777572553675,2211
1777572553677,2292
1777572553679,2403
1777572553726,2567
1777572553728,2679
1777572553730,2758
1777572553732,2813
1777572553734,2838
1777572553736,2862
1777572553738,2916
1777572553740,3032
1777572553742,3206
1777572553744,3403
1777572553726,3573
1777572553728,3685
1777572553730,3702
1777572553732,3611
1777572553734,3432
1777572553736,3223
1777572553738,3030
1777572553740,2887
1777572553742,2809
1777572553744,2768
1777572553726,2742
1777572553728,2722
1777572553730,2666
1777572553732,2622
1777572553734,2507
1777572553736,2380
1777572553738,2295
1777572553740,2284
1777572553742,2332
1777572553744,2410
1777572553726,2493
1777572553728,2550
1777572553730,2568
1777572553732,2548
1777572553734,2492
1777572553736,2444
1777572553738,2415
1777572553740,2429
1777572553742,2490
1777572553744,2574
1777572553756,2653
1777572553758,2717
1777572553760,2736
1777572553762,2726
1777572553764,2664
1777572553766,2618
1777572553768,2587
1777572553770,2579
1777572553772,2626
1777572553774,2704
1777572553756,2789
1777572553758,2852
1777572553760,2876
1777572553762,2846
1777572553764,2777
1777572553766,2699
1777572553768,2642
1777572553770,2641
1777572553772,2692
1777572553774,2771
1777572553796,2857
1777572553798,2919
1777572553800,2940
1777572553802,2914
1777572553804,2850
1777572553806,2765
1777572553808,2709
1777572553810,2696
1777572553812,2770
1777572553814,2851
1777572553796,2933
1777572553798,2998
1777572553800,3021
1777572553802,3004
1777572553804,2935
1777572553806,2863
1777572553808,2818
1777572553810,2816
1777572553812,2860
1777572553814,2929
1777572553853,3001
1777572553855,3051
1777572553857,3070
1777572553859,3065
1777572553861,3023
1777572553863,2958
1777572553865,2913
1777572553867,2918
1777572553869,2971
1777572553871,3026
1777572553853,3133
1777572553855,3190
1777572553857,3220
1777572553859,3200
1777572553861,3144
1777572553863,3076
1777572553865,3025
1777572553867,3024
1777572553869,3076
1777572553871,3164
1777572553853,3253
1777572553855,3324
1777572553857,3364
1777572553859,3354
1777572553861,3293
1777572553863,3228
1777572553865,3181
1777572553867,3188
1777572553869,3243
1777572553871,3329
1777572553886,3422
1777572553888,3505
1777572553890,3526
1777572553892,3545
1777572553894,3485
1777572553896,3404
1777572553898,3329
1777572553900,3297
1777572553902,3329
1777572553904,3402
1777572553949,3490
1777572553951,3556
1777572553953,3580
1777572553955,3549
1777572553957,3476
1777572553959,3381
1777572553961,3316
1777572553963,3301
1777572553965,3329
1777572553967,3385
1777572553949,3453
1777572553951,3503
1777572553953,3502
1777572553955,3464
1777572553957,3372
1777572553959,3282
1777572553961,3177
1777572553963,3136
1777572553965,3151
1777572553967,3196
1777572553949,3261
1777572553951,3307
1777572553953,3310
1777572553955,3273
1777572553957,3191
1777572553959,3084
1777572553961,2996
1777572553963,2974
1777572553965,3009
1777572553967,3073
1777572553980,3140
1777572553982,3191
1777572553984,3210
1777572553986,3188
1777572553988,3113
1777572553990,3007
1777572553992,2927
1777572553994,2884
1777572553996,2957
1777572553998,3032
1777572553980,3119
1777572553982,3180
1777572553984,3199
1777572553986,3170
1777572553988,3093
1777572553990,3004
1777572553992,2931
1777572553994,2912
1777572553996,2953
1777572553998,3025
1777572554021,3101
1777572554023,3161
1777572554025,3188
1777572554027,3164
1777572554029,3094
1777572554031,3008
1777572554033,2942
1777572554035,2926
1777572554037,2967
1777572554039,3024
1777572554021,3136
1777572554023,3195
1777572554025,3213
1777572554027,3196
1777572554029,3136
1777572554031,3065
1777572554033,3013
1777572554035,3003
1777572554037,3044
1777572554039,3111
1777572554021,3183
1777572554023,3233
1777572554025,3250
1777572554027,3236
1777572554029,3177
1777572554031,3100
1777572554033,3031
1777572554035,3011
1777572554037,3050
1777572554039,3133
1777572554076,3212
1777572554078,3275
1777572554080,3278
1777572554082,3292
1777572554084,3222
1777572554086,3127
1777572554088,3049
1777572554090,3037
1777572554092,3080
1777572554094,3157
1777572554111,3240
1777572554113,3311
1777572554115,3342
1777572554117,3322
1777572554119,3269
1777572554121,3198
1777572554123,3137
1777572554125,3127
1777572554127,3170
1777572554129,3247
1777572554111,3328
1777572554113,3389
1777572554115,3404
1777572554117,3389
1777572554119,3332
1777572554121,3276
1777572554123,3211
1777572554125,3194
1777572554127,3228
1777572554129,3297
1777572554111,3386
1777572554113,3466
1777572554115,3504
1777572554117,3492
1777572554119,3425
1777572554121,3345
1777572554123,3275
1777572554125,3244
1777572554127,3279
1777572554129,3348
1777572554172,3433
1777572554174,3500
1777572554176,3520
1777572554178,3493
1777572554180,3424
1777572554182,3331
1777572554184,3257
1777572554186,3216
1777572554188,3291
1777572554190,3364
1777572554172,3446
1777572554174,3505
1777572554176,3536
1777572554178,3526
1777572554180,3472
1777572554182,3390
1777572554184,3315
1777572554186,3299
1777572554188,3347
1777572554190,3420
1777572554203,3488
1777572554205,3546
1777572554207,3573
1777572554209,3552
1777572554211,3475
1777572554213,3382
1777572554215,3302
1777572554217,3276
1777572554219,3322
1777572554221,3399
1777572554203,3536
1777572554205,3625
1777572554207,3660
1777572554209,3644
1777572554211,3572
1777572554213,3482
1777572554215,3409
1777572554217,3392
1777572554219,3436
1777572554221,3523
1777572554246,3617
1777572554248,3696
1777572554250,3733
1777572554252,3710
1777572554254,3647
1777572554256,3552
1777572554258,3466
1777572554260,3435
1777572554262,3472
1777572554264,3551
1777572554246,3650
1777572554248,3743
1777572554250,3774
1777572554252,3768
1777572554254,3675
1777572554256,3570
1777572554258,3489
1777572554260,3472
1777572554262,3509
1777572554264,3589
1777572554300,3673
1777572554302,3744
1777572554304,3771
1777572554306,3752
1777572554308,3685
1777572554310,3577
1777572554312,3504
1777572554314,3485
1777572554316,3519
1777572554318,3603
1777572554300,3702
1777572554302,3783
1777572554304,3819
1777572554306,3793
1777572554308,3699
1777572554310,3620
1777572554312,3529
1777572554314,3491
1777572554316,3517
1777572554318,3586
1777572554300,3666
1777572554302,3741
1777572554304,3794
1777572554306,3790
1777572554308,3724
1777572554310,3639
1777572554312,3565
1777572554314,3548
1777572554316,3587
1777572554318,3664
1777572554336,3751
1777572554338,3825
1777572554340,3863
1777572554342,3846
1777572554344,3762
1777572554346,3655
1777572554348,3564
1777572554350,3509
1777572554352,3584
1777572554354,3665
1777572554336,3764
1777572554338,3844
1777572554340,3885
1777572554342,3864
1777572554344,3786
1777572554346,3679
1777572554348,3584
1777572554350,3556
1777572554352,3606
1777572554354,3702
1777572554398,3811
1777572554400,3910
1777572554402,3945
1777572554404,3913
1777572554406,3826
1777572554408,3726
1777572554410,3643
1777572554412,3621
1777572554414,3660
1777572554416,3725
1777572554398,3838
1777572554400,3932
1777572554402,3985
1777572554404,3968
1777572554406,3882
1777572554408,3772
1777572554410,3675
1777572554412,3641
1777572554414,3673
1777572554416,3757
1777572554447,3862
1777572554449,3951
1777572554451,4002
1777572554453,4002
1777572554455,3944
1777572554457,3861
1777572554459,3785
1777572554461,3747
1777572554463,3780
1777572554465,3867
1777572554447,3961
1777572554449,4045
1777572554451,4081
1777572554453,4090
1777572554455,4016
1777572554457,3895
1777572554459,3789
1777572554461,3753
1777572554463,3783
1777572554465,3868
1777572554481,3966
1777572554483,4059
1777572554485,4092
1777572554487,4088
1777572554489,4023
1777572554491,3919
1777572554493,3812
1777572554495,3764
1777572554497,3792
1777572554499,3864
1777572554481,3958
1777572554483,4040
1777572554485,4068
1777572554487,4037
1777572554489,3942
1777572554491,3853
1777572554493,3767
1777572554495,3731
1777572554497,3765
1777572554499,3858
1777572554481,3961
1777572554483,4033
1777572554485,4065
1777572554487,4043
1777572554489,3971
1777572554491,3871
1777572554493,3769
1777572554495,3715
1777572554497,3732
1777572554499,3800
1777572554541,3899
1777572554543,3995
1777572554545,4052
1777572554547,4045
1777572554549,3974
1777572554551,3872
1777572554553,3770
1777572554555,3704
1777572554557,3761
1777572554559,3833
1777572554541,3919
1777572554543,4006
1777572554545,4044
1777572554547,4024
1777572554549,3950
1777572554551,3853
1777572554553,3770
1777572554555,3743
1777572554557,3775
1777572554559,3853
1777572554561,3963
1777572554563,4075
1777572554565,4095
1777572554567,4095
1777572554569,4095
1777572554571,4095
1777572554573,4095
1777572554575,4095
1777572554577,4095
1777572554579,4095
1777572554561,4095
1777572554563,4095
1777572554565,4095
1777572554567,4095
1777572554569,4095
1777572554571,4095
1777572554573,4095
1777572554575,4095
1777572554577,4095
1777572554579,4095
1777572554621,4095
1777572554623,4095
1777572554625,4095
1777572554627,4095
1777572554629,4007
1777572554631,3806
1777572554633,3638
1777572554635,3546
1777572554637,3543
1777572554639,3605
1777572554621,3687
1777572554623,3767
1777572554625,3809
1777572554627,3841
1777572554629,3802
1777572554631,3721
1777572554633,3649
1777572554635,3624
1777572554637,3660
1777572554639,3749
1777572554621,3870
1777572554623,3990
1777572554625,4081
1777572554627,4092
1777572554629,4031
1777572554631,3932
1777572554633,3841
1777572554635,3801
1777572554637,3826
1777572554639,3902
1777572554652,4001
1777572554654,4082
1777572554656,4095
1777572554658,4095
1777572554660,4051
1777572554662,3966
1777572554664,3879
1777572554666,3834
1777572554668,3855
1777572554670,3934
1777572554652,4030
1777572554654,4092
1777572554656,4095
1777572554658,4095
1777572554660,4094
1777572554662,4029
1777572554664,3917
1777572554666,3867
1777572554668,3896
1777572554670,3988
1777572554696,4080
1777572554698,4095
1777572554700,4095
1777572554702,4095
1777572554704,4095
1777572554706,4057
1777572554708,3956
1777572554710,3911
1777572554712,3969
1777572554714,4069
1777572554696,4095
1777572554698,4095
1777572554700,4095
1777572554702,4095
1777572554704,4095
1777572554706,4088
1777572554708,4005
1777572554710,3956
1777572554712,4005
1777572554714,4090
1777572554747,4095
1777572554749,4095
1777572554751,4095
1777572554753,4095
1777572554755,4095
1777572554757,4095
1777572554759,4095
1777572554761,4091
1777572554763,4094
1777572554765,4095
1777572554747,4095
1777572554749,4095
1777572554751,4095
1777572554753,4095
1777572554755,4095
1777572554757,4095
1777572554759,4095
1777572554761,4095
1777572554763,4095
1777572554765,4095
1777572554786,4095
1777572554788,4095
1777572554790,4095
1777572554792,4095
1777572554794,4095
1777572554796,4095
1777572554798,4095
1777572554800,4095
1777572554802,4095
1777572554804,4095
1777572554787,4095
1777572554789,4095
1777572554791,4095
1777572554793,4095
1777572554795,4095
1777572554797,4095
1777572554799,4095
1777572554801,4095
1777572554803,4095
1777572554805,4095
1777572554787,4095
1777572554789,4095
1777572554791,4095
1777572554793,4095
1777572554795,4095
1777572554797,4094
1777572554799,4026
1777572554801,3944
1777572554803,3935
1777572554805,3988
1777572554842,4063
1777572554844,4094
1777572554846,4095
1777572554848,4087
1777572554850,3996
1777572554852,3892
1777572554854,3785
1777572554856,3713
1777572554858,3706
1777572554860,3757
1777572554842,3837
1777572554844,3918
1777572554846,3958
1777572554848,3940
1777572554850,3874
1777572554852,3772
1777572554854,3661
1777572554856,3605
1777572554858,3618
1777572554860,3676
1777572554877,3743
1777572554879,3805
1777572554881,3850
1777572554883,3837
1777572554885,3773
1777572554887,3685
1777572554889,3591
1777572554891,3524
1777572554893,3546
1777572554895,3589
1777572554878,3660
1777572554880,3737
1777572554882,3786
1777572554884,3796
1777572554886,3747
1777572554888,3666
1777572554890,3568
1777572554892,3516
1777572554894,3524
1777572554896,3595
1777572554921,3682
1777572554923,3754
1777572554925,3792
1777572554927,3794
1777572554929,3755
1777572554931,3690
1777572554933,3595
1777572554935,3523
1777572554937,3508
1777572554939,3544
1777572554937,3656
1777572554939,3755
1777572554941,3822
1777572554943,3837
1777572554945,3789
1777572554947,3678
1777572554949,3571
1777572554951,3503
1777572554953,3509
1777572554955,3558
1777572554970,3636
1777572554972,3718
1777572554974,3772
1777572554976,3782
1777572554978,3745
1777572554980,3659
1777572554982,3569
1777572554984,3527
1777572554986,3540
1777572554988,3606
1777572554970,3689
1777572554972,3773
1777572554974,3823
1777572554976,3847
1777572554978,3787
1777572554980,3691
1777572554982,3587
1777572554984,3518
1777572554986,3514
1777572554988,3571
1777572554970,3653
1777572554972,3730
1777572554974,3788
1777572554976,3801
1777572554978,3749
1777572554980,3658
1777572554982,3565
1777572554984,3506
1777572554986,3508
1777572554988,3574
1777572555011,3666
1777572555013,3762
1777572555015,3822
1777572555017,3832
1777572555019,3778
1777572555021,3703
1777572555023,3612
1777572555025,3533
1777572555027,3512
1777572555029,3552
1777572555012,3624
1777572555014,3721
1777572555016,3786
1777572555018,3806
1777572555020,3768
1777572555022,3689
1777572555024,3604
1777572555026,3556
1777572555028,3560
1777572555030,3607
1777572555066,3681
1777572555068,3745
1777572555070,3787
1777572555072,3787
1777572555074,3742
1777572555076,3649
1777572555078,3544
1777572555080,3475
1777572555082,3504
1777572555084,3562
1777572555066,3649
1777572555068,3731
1777572555070,3782
1777572555072,3784
1777572555074,3730
1777572555076,3638
1777572555078,3546
1777572555080,3490
1777572555082,3496
1777572555084,3567
1777572555101,3665
1777572555103,3747
1777572555105,3794
1777572555107,3797
1777572555109,3740
1777572555111,3643
1777572555113,3532
1777572555115,3461
1777572555117,3457
1777572555119,3501
1777572555101,3627
1777572555103,3733
1777572555105,3797
1777572555107,3803
1777572555109,3748
1777572555111,3652
1777572555113,3550
1777572555115,3483
1777572555117,3473
1777572555119,3512
1777572555162,3591
1777572555164,3664
1777572555166,3721
1777572555168,3740
1777572555170,3701
1777572555172,3611
1777572555174,3503
1777572555176,3444
1777572555178,3457
1777572555180,3515
1777572555162,3592
1777572555164,3661
1777572555166,3693
1777572555168,3720
1777572555170,3670
1777572555172,3587
1777572555174,3492
1777572555176,3430
1777572555178,3436
1777572555180,3489
1777572555162,3563
1777572555164,3653
1777572555166,3725
1777572555168,3753
1777572555170,3713
1777572555172,3620
1777572555174,3510
1777572555176,3434
1777572555178,3419
1777572555180,3471
1777572555195,3561
1777572555197,3652
1777572555199,3714
1777572555201,3721
1777572555203,3661
1777572555205,3581
1777572555207,3488
1777572555209,3415
1777572555211,3402
1777572555213,3451
1777572555195,3531
1777572555197,3608
1777572555199,3669
1777572555201,3680
1777572555203,3633
1777572555205,3535
1777572555207,3429
1777572555209,3372
1777572555211,3381
1777572555213,3449
1777572555236,3544
1777572555238,3646
1777572555240,3711
1777572555242,3723
1777572555244,3683
1777572555246,3603
1777572555248,3498
1777572555250,3406
1777572555252,3409
1777572555254,3431
1777572555236,3499
1777572555238,3585
1777572555240,3654
1777572555242,3677
1777572555244,3632
1777572555246,3524
1777572555248,3427
1777572555250,3362
1777572555252,3353
1777572555254,3398
1777572555290,3474
1777572555292,3546
1777572555294,3607
1777572555296,3634
1777572555298,3604
1777572555300,3518
1777572555302,3408
1777572555304,3319
1777572555306,3295
1777572555308,3327
1777572555290,3438
1777572555292,3527
1777572555294,3600
1777572555296,3621
1777572555298,3576
1777572555300,3484
1777572555302,3380
1777572555304,3309
1777572555306,3297
1777572555308,3335
1777572555327,3407
1777572555329,3490
1777572555331,3555
1777572555333,3572
1777572555335,3533
1777572555337,3455
1777572555339,3360
1777572555341,3288
1777572555343,3280
1777572555345,3330
1777572555327,3408
1777572555329,3489
1777572555331,3526
1777572555333,3556
1777572555335,3508
1777572555337,3433
1777572555339,3337
1777572555341,3266
1777572555343,3263
1777572555345,3321
1777572555328,3429
1777572555330,3529
1777572555332,3599
1777572555334,3609
1777572555336,3551
1777572555338,3462
1777572555340,3357
1777572555342,3277
1777572555344,3255
1777572555346,3289
1777572555385,3366
1777572555387,3450
1777572555389,3502
1777572555391,3514
1777572555393,3456
1777572555395,3391
1777572555397,3305
1777572555399,3231
1777572555401,3212
1777572555403,3248
1777572555385,3316
1777572555387,3388
1777572555389,3445
1777572555391,3457
1777572555393,3416
1777572555395,3330
1777572555397,3225
1777572555399,3160
1777572555401,3147
1777572555403,3186
1777572555419,3252
1777572555421,3327
1777572555423,3375
1777572555425,3389
1777572555427,3354
1777572555429,3278
1777572555431,3182
1777572555433,3101
1777572555435,3112
1777572555437,3143
1777572555419,3207
1777572555421,3281
1777572555423,3343
1777572555425,3361
1777572555427,3327
1777572555429,3254
1777572555431,3169
1777572555433,3091
1777572555435,3069
1777572555437,3104
1777572555461,3184
1777572555463,3265
1777572555465,3328
1777572555467,3343
1777572555469,3304
1777572555471,3236
1777572555473,3148
1777572555475,3061
1777572555477,3023
1777572555479,3023
1777572555461,3124
1777572555463,3210
1777572555465,3278
1777572555467,3319
1777572555469,3322
1777572555471,3301
1777572555473,3259
1777572555475,3249
1777572555477,3316
1777572555479,3462
1777572555512,3669
1777572555514,3914
1777572555516,4087
1777572555518,4095
1777572555520,4095
1777572555522,4095
1777572555524,4095
1777572555526,4095
1777572555528,4080
1777572555530,4016
1777572555512,3946
1777572555514,3869
1777572555516,3781
1777572555518,3690
1777572555520,3535
1777572555522,3346
1777572555524,3149
1777572555526,2994
1777572555528,2910
1777572555530,2905
1777572555512,2965
1777572555514,3033
1777572555516,3075
1777572555518,3074
1777572555520,3036
1777572555522,2965
1777572555524,2876
1777572555526,2820
1777572555528,2825
1777572555530,2880
1777572555551,2960
1777572555553,3043
1777572555555,3099
1777572555557,3125
1777572555559,3077
1777572555561,3035
1777572555563,2976
1777572555565,2917
1777572555567,2898
1777572555569,2940
1777572555551,3011
1777572555553,3087
1777572555555,3156
1777572555557,3184
1777572555559,3165
1777572555561,3096
1777572555563,3024
1777572555565,2960
1777572555567,2939
1777572555569,2975
1777572555608,3048
1777572555610,3132
1777572555612,3208
1777572555614,3241
1777572555616,3214
1777572555618,3144
1777572555620,3050
1777572555622,2967
1777572555624,2975
1777572555626,3013
1777572555608,3093
1777572555610,3180
1777572555612,3244
1777572555614,3256
1777572555616,3221
1777572555618,3157
1777572555620,3069
1777572555622,3000
1777572555624,2978
1777572555626,3013
1777572555642,3082
1777572555644,3158
1777572555646,3215
1777572555648,3239
1777572555650,3217
1777572555652,3158
1777572555654,3073
1777572555656,2995
1777572555658,2971
1777572555660,2982
1777572555643,3069
1777572555645,3159
1777572555647,3237
1777572555649,3287
1777572555651,3286
1777572555653,3241
1777572555655,3151
1777572555657,3068
1777572555659,3043
1777572555661,3072
1777572555686,3142
1777572555688,3227
1777572555690,3285
1777572555692,3315
1777572555694,3316
1777572555696,3283
1777572555698,3215
1777572555700,3151
1777572555702,3133
1777572555704,3167
1777572555686,3234
1777572555688,3319
1777572555690,3384
1777572555692,3449
1777572555694,3444
1777572555696,3398
1777572555698,3322
1777572555700,3249
1777572555702,3221
1777572555704,3247
1777572555687,3308
1777572555689,3374
1777572555691,3428
1777572555693,3451
1777572555695,3422
1777572555697,3352
1777572555699,3265
1777572555701,3191
1777572555703,3157
1777572555705,3181
1777572555737,3240
1777572555739,3310
1777572555741,3377
1777572555743,3415
1777572555745,3373
1777572555747,3304
1777572555749,3210
1777572555751,3109
1777572555753,3048
1777572555755,3038
1777572555737,3073
1777572555739,3121
1777572555741,3158
1777572555743,3165
1777572555745,3131
1777572555747,3065
1777572555749,2977
1777572555751,2890
1777572555753,2845
1777572555755,2852
1777572555777,2894
1777572555779,2939
1777572555781,2981
1777572555783,2986
1777572555785,2949
1777572555787,2870
1777572555789,2777
1777572555791,2676
1777572555793,2659
1777572555795,2671
1777572555777,2726
1777572555779,2799
1777572555781,2856
1777572555783,2884
1777572555785,2861
1777572555787,2805
1777572555789,2713
1777572555791,2627
1777572555793,2585
1777572555795,2603
1777572555833,2665
1777572555835,2745
1777572555837,2808
1777572555839,2839
1777572555841,2819
1777572555843,2769
1777572555845,2691
1777572555847,2615
1777572555849,2577
1777572555851,2579
1777572555833,2661
1777572555835,2728
1777572555837,2779
1777572555839,2796
1777572555841,2792
1777572555843,2750
1777572555845,2669
1777572555847,2587
1777572555849,2550
1777572555851,2564
1777572555880,2624
1777572555882,2697
1777572555884,2763
1777572555886,2801
1777572555888,2791
1777572555890,2743
1777572555892,2665
1777572555894,2608
1777572555896,2589
1777572555898,2623
1777572555880,2677
1777572555882,2745
1777572555884,2790
1777572555886,2838
1777572555888,2813
1777572555890,2748
1777572555892,2651
1777572555894,2562
1777572555896,2533
1777572555898,2562
1777572555880,2636
1777572555882,2729
1777572555884,2812
1777572555886,2853
1777572555888,2835
1777572555890,2771
1777572555892,2696
1777572555894,2608
1777572555896,2567
1777572555898,2585
1777572555911,2650
1777572555913,2734
1777572555915,2798
1777572555917,2837
1777572555919,2815
1777572555921,2782
1777572555923,2714
1777572555925,2625
1777572555927,2582
1777572555929,2600
1777572555911,2659
1777572555913,2735
1777572555915,2811
1777572555917,2853
1777572555919,2840
1777572555921,2793
1777572555923,2716
1777572555925,2632
1777572555927,2582
1777572555929,2588
1777572555960,2645
1777572555962,2721
1777572555964,2799
1777572555966,2841
1777572555968,2835
1777572555970,2774
1777572555972,2688
1777572555974,2592
1777572555976,2585
1777572555978,2608
1777572555960,2667
1777572555962,2737
1777572555964,2804
1777572555966,2838
1777572555968,2829
1777572555970,2781
1777572555972,2701
1777572555974,2633
1777572555976,2608
1777572555978,2632
1777572556001,2677
1777572556003,2746
1777572556005,2806
1777572556007,2837
1777572556009,2833
1777572556011,2792
1777572556013,2715
1777572556015,2630
1777572556017,2580
1777572556019,2579
1777572556001,2663
1777572556003,2736
1777572556005,2799
1777572556007,2834
1777572556009,2832
1777572556011,2782
1777572556013,2698
1777572556015,2632
1777572556017,2601
1777572556019,2613
1777572556001,2665
1777572556003,2743
1777572556005,2810
1777572556007,2848
1777572556009,2834
1777572556011,2781
1777572556013,2711
1777572556015,2651
1777572556017,2612
1777572556019,2618
1777572556057,2677
1777572556059,2731
1777572556061,2764
1777572556063,2829
1777572556065,2813
1777572556067,2769
1777572556069,2699
1777572556071,2625
1777572556073,2586
1777572556075,2593
1777572556057,2649
1777572556059,2726
1777572556061,2790
1777572556063,2826
1777572556065,2813
1777572556067,2760
1777572556069,2687
1777572556071,2608
1777572556073,2574
1777572556075,2605
1777572556104,2668
1777572556106,2736
1777572556108,2793
1777572556110,2823
1777572556112,2799
1777572556114,2779
1777572556116,2709
1777572556118,2627
1777572556120,2582
1777572556122,2597
1777572556104,2658
1777572556106,2741
1777572556108,2811
1777572556110,2850
1777572556112,2843
1777572556114,2801
1777572556116,2714
1777572556118,2632
1777572556120,2604
1777572556122,2631
1777572556138,2692
1777572556140,2769
1777572556142,2831
1777572556144,2860
1777572556146,2844
1777572556148,2781
1777572556150,2690
1777572556152,2591
1777572556154,2574
1777572556156,2590
1777572556138,2645
1777572556140,2727
1777572556142,2806
1777572556144,2855
1777572556146,2863
1777572556148,2819
1777572556150,2734
1777572556152,2644
1777572556154,2598
1777572556156,2616
1777572556185,2680
1777572556187,2756
1777572556189,2824
1777572556191,2872
1777572556193,2881
1777572556195,2840
1777572556197,2757
1777572556199,2675
1777572556201,2630
1777572556203,2626
1777572556185,2710
1777572556187,2795
1777572556189,2867
1777572556191,2916
1777572556193,2908
1777572556195,2854
1777572556197,2756
1777572556199,2659
1777572556201,2607
1777572556203,2620
1777572556185,2686
1777572556187,2768
1777572556189,2840
1777572556191,2882
1777572556193,2878
1777572556195,2832
1777572556197,2765
1777572556199,2691
1777572556201,2649
1777572556203,2659
1777572556234,2702
1777572556236,2762
1777572556238,2800
1777572556240,2870
1777572556242,2871
1777572556244,2829
1777572556246,2743
1777572556248,2664
1777572556250,2622
1777572556252,2628
1777572556234,2680
1777572556236,2752
1777572556238,2832
1777572556240,2890
1777572556242,2888
1777572556244,2841
1777572556246,2756
1777572556248,2666
1777572556250,2610
1777572556252,2623
1777572556301,2693
1777572556303,2767
1777572556305,2837
1777572556307,2884
1777572556309,2878
1777572556311,2865
1777572556313,2786
1777572556315,2690
1777572556317,2629
1777572556319,2632
1777572556301,2686
1777572556303,2766
1777572556305,2846
1777572556307,2893
1777572556309,2894
1777572556311,2855
1777572556313,2783
1777572556315,2704
1777572556317,2671
1777572556319,2701
1777572556336,2763
1777572556338,2843
1777572556340,2913
1777572556342,2958
1777572556344,2965
1777572556346,2922
1777572556348,2844
1777572556350,2739
1777572556352,2707
1777572556354,2720
1777572556336,2783
1777572556338,2869
1777572556340,2938
1777572556342,2974
1777572556344,2973
1777572556346,2932
1777572556348,2853
1777572556350,2769
1777572556352,2718
1777572556354,2717
1777572556373,2769
1777572556375,2840
1777572556377,2902
1777572556379,2934
1777572556381,2921
1777572556383,2871
1777572556385,2787
1777572556387,2712
1777572556389,2667
1777572556391,2660
1777572556373,2740
1777572556375,2819
1777572556377,2880
1777572556379,2919
1777572556381,2916
1777572556383,2876
1777572556385,2795
1777572556387,2712
1777572556389,2657
1777572556391,2656
1777572556373,2701
1777572556375,2773
1777572556377,2845
1777572556379,2900
1777572556381,2907
1777572556383,2869
1777572556385,2795
1777572556387,2705
1777572556389,2649
1777572556391,2655
1777572556452,2700
1777572556454,2769
1777572556456,2817
1777572556458,2898
1777572556460,2901
1777572556462,2856
1777572556464,2770
1777572556466,2677
1777572556468,2617
1777572556470,2616
1777572556453,2669
1777572556455,2758
1777572556457,2842
1777572556459,2896
1777572556461,2918
1777572556463,2927
1777572556465,2900
1777572556467,2880
1777572556469,2911
1777572556471,3001
1777572556453,3156
1777572556455,3350
1777572556457,3562
1777572556459,3765
1777572556461,3906
1777572556463,3995
1777572556465,3964
1777572556467,3862
1777572556469,3746
1777572556471,3655
1777572556453,3591
1777572556455,3521
1777572556457,3447
1777572556459,3355
1777572556461,3235
1777572556463,3086
1777572556465,2919
1777572556467,2747
1777572556469,2616
1777572556471,2556
1777572556503,2563
1777572556505,2608
1777572556507,2657
1777572556509,2697
1777572556511,2706
1777572556513,2668
1777572556515,2602
1777572556517,2503
1777572556519,2504
1777572556521,2531
1777572556503,2602
1777572556505,2693
1777572556507,2773
1777572556509,2831
1777572556511,2845
1777572556513,2815
1777572556515,2742
1777572556517,2663
1777572556519,2617
1777572556521,2626
1777572556554,2683
1777572556556,2763
1777572556558,2838
1777572556560,2894
1777572556562,2913
1777572556564,2887
1777572556566,2822
1777572556568,2741
1777572556570,2683
1777572556572,2667
1777572556554,2752
1777572556556,2837
1777572556558,2914
1777572556560,2975
1777572556562,2990
1777572556564,2960
1777572556566,2887
1777572556568,2801
1777572556570,2740
1777572556572,2734
1777572556554,2782
1777572556556,2853
1777572556558,2925
1777572556560,2976
1777572556562,2983
1777572556564,2950
1777572556566,2875
1777572556568,2796
1777572556570,2754
1777572556572,2772
1777572556586,2815
1777572556588,2891
1777572556590,2945
1777572556592,3034
1777572556594,3047
1777572556596,3018
1777572556598,2940
1777572556600,2846
1777572556602,2786
1777572556604,2785
1777572556587,2842
1777572556589,2925
1777572556591,3010
1777572556593,3068
1777572556595,3082
1777572556597,3057
1777572556599,2990
1777572556601,2909
1777572556603,2852
1777572556605,2857
1777572556693,2918
1777572556695,3003
1777572556697,3083
1777572556699,3156
1777572556701,3172
1777572556703,3177
1777572556705,3116
1777572556707,3028
1777572556709,2959
1777572556711,2945
1777572556693,2997
1777572556695,3075
1777572556697,3152
1777572556699,3211
1777572556701,3232
1777572556703,3208
1777572556705,3144
1777572556707,3063
1777572556709,3009
1777572556711,3004
1777572556693,3055
1777572556695,3144
1777572556697,3228
1777572556699,3289
1777572556701,3310
1777572556703,3275
1777572556705,3197
1777572556707,3109
1777572556709,3033
1777572556711,3013
1777572556693,3046
1777572556695,3121
1777572556697,3189
1777572556699,3235
1777572556701,3228
1777572556703,3188
1777572556705,3100
1777572556707,2981
1777572556709,2884
1777572556711,2858
1777572556722,2890
1777572556724,2948
1777572556726,2998
1777572556728,3025
1777572556730,3010
1777572556732,2948
1777572556734,2842
1777572556736,2719
1777572556738,2617
1777572556740,2556
1777572556722,2585
1777572556724,2673
1777572556726,2741
1777572556728,2783
1777572556730,2774
1777572556732,2738
1777572556734,2663
1777572556736,2574
1777572556738,2508
1777572556740,2487
1777572556722,2520
1777572556724,2582
1777572556726,2633
1777572556728,2672
1777572556730,2670
1777572556732,2644
1777572556734,2564
1777572556736,2468
1777572556738,2394
1777572556740,2373
1777572556853,2391
1777572556855,2459
1777572556857,2504
1777572556859,2597
1777572556861,2615
1777572556863,2598
1777572556865,2532
1777572556867,2438
1777572556869,2362
1777572556871,2352
1777572556853,2400
1777572556855,2474
1777572556857,2545
1777572556859,2594
1777572556861,2611
1777572556863,2581
1777572556865,2507
1777572556867,2419
1777572556869,2348
1777572556871,2333
1777572556853,2380
1777572556855,2457
1777572556857,2533
1777572556859,2591
1777572556861,2597
1777572556863,2582
1777572556865,2503
1777572556867,2418
1777572556869,2346
1777572556871,2324
1777572556853,2370
1777572556855,2453
1777572556857,2531
1777572556859,2586
1777572556861,2606
1777572556863,2589
1777572556865,2530
1777572556867,2448
1777572556869,2377
1777572556871,2360
1777572556906,2404
1777572556908,2490
1777572556910,2576
1777572556912,2630
1777572556914,2634
1777572556916,2592
1777572556918,2519
1777572556920,2398
1777572556922,2376
1777572556924,2372
1777572556906,2414
1777572556908,2480
1777572556910,2555
1777572556912,2626
1777572556914,2660
1777572556916,2638
1777572556918,2560
1777572556920,2452
1777572556922,2364
1777572556924,2343
1777572556907,2388
1777572556909,2465
1777572556911,2540
1777572556913,2598
1777572556915,2618
1777572556917,2591
1777572556919,2522
1777572556921,2438
1777572556923,2376
1777572556925,2346
1777572556907,2403
1777572556909,2474
1777572556911,2547
1777572556913,2605
1777572556915,2625
1777572556917,2597
1777572556919,2519
1777572556921,2420
1777572556923,2341
1777572556925,2329
1777572556907,2373
1777572556909,2446
1777572556911,2530
1777572556913,2597
1777572556915,2631
1777572556917,2623
1777572556919,2552
1777572556921,2450
1777572556923,2359
1777572556925,2326
1777572556961,2351
1777572556963,2425
1777572556965,2475
1777572556967,2576
1777572556969,2593
1777572556971,2569
1777572556973,2491
1777572556975,2397
1777572556977,2319
1777572556979,2294
1777572557040,2334
1777572557042,2405
1777572557044,2480
1777572557046,2539
1777572557048,2569
1777572557050,2551
1777572557052,2491
1777572557054,2402
1777572557056,2326
1777572557058,2308
1777572557040,2333
1777572557042,2386
1777572557044,2452
1777572557046,2515
1777572557048,2541
1777572557050,2550
1777572557052,2489
1777572557054,2404
1777572557056,2328
1777572557058,2297
1777572557040,2321
1777572557042,2378
1777572557044,2449
1777572557046,2513
1777572557048,2547
1777572557050,2536
1777572557052,2466
1777572557054,2365
1777572557056,2280
1777572557058,2252
1777572557041,2285
1777572557043,2361
1777572557045,2446
1777572557047,2514
1777572557049,2543
1777572557051,2517
1777572557053,2447
1777572557055,2323
1777572557057,2269
1777572557059,2224
1777572557041,2248
1777572557043,2303
1777572557045,2391
1777572557047,2464
1777572557049,2490
1777572557051,2472
1777572557053,2411
1777572557055,2332
1777572557057,2257
1777572557059,2227
1777572557119,2256
1777572557121,2323
1777572557123,2398
1777572557125,2452
1777572557127,2469
1777572557129,2458
1777572557131,2406
1777572557133,2325
1777572557135,2258
1777572557137,2217
1777572557119,2259
1777572557121,2325
1777572557123,2399
1777572557125,2462
1777572557127,2486
1777572557129,2469
1777572557131,2408
1777572557133,2327
1777572557135,2254
1777572557137,2234
1777572557193,2280
1777572557195,2355
1777572557197,2425
1777572557199,2476
1777572557201,2506
1777572557203,2486
1777572557205,2428
1777572557207,2342
1777572557209,2268
1777572557211,2241
1777572557193,2257
1777572557195,2316
1777572557197,2377
1777572557199,2468
1777572557201,2512
1777572557203,2510
1777572557205,2439
1777572557207,2343
1777572557209,2259
1777572557211,2226
1777572557193,2256
1777572557195,2325
1777572557197,2395
1777572557199,2458
1777572557201,2489
1777572557203,2468
1777572557205,2400
1777572557207,2302
1777572557209,2224
1777572557211,2197
1777572557193,2229
1777572557195,2301
1777572557197,2382
1777572557199,2456
1777572557201,2485
1777572557203,2497
1777572557205,2458
1777572557207,2380
1777572557209,2307
1777572557211,2269
1777572557193,2280
1777572557195,2314
1777572557197,2369
1777572557199,2435
1777572557201,2470
1777572557203,2467
1777572557205,2409
1777572557207,2324
1777572557209,2250
1777572557211,2222
1777572557261,2257
1777572557263,2339
1777572557265,2423
1777572557267,2499
1777572557269,2531
1777572557271,2513
1777572557273,2450
1777572557275,2338
1777572557277,2291
1777572557279,2251
1777572557261,2276
1777572557263,2351
1777572557265,2436
1777572557267,2501
1777572557269,2528
1777572557271,2519
1777572557273,2468
1777572557275,2383
1777572557277,2305
1777572557279,2272
1777572557262,2308
1777572557264,2382
1777572557266,2460
1777572557268,2512
1777572557270,2526
1777572557272,2507
1777572557274,2437
1777572557276,2333
1777572557278,2229
1777572557280,2163
1777572557262,2195
1777572557264,2270
1777572557266,2355
1777572557268,2428
1777572557270,2461
1777572557272,2453
1777572557274,2391
1777572557276,2304
1777572557278,2243
1777572557280,2230
1777572557330,2265
1777572557332,2324
1777572557334,2383
1777572557336,2427
1777572557338,2447
1777572557340,2437
1777572557342,2385
1777572557344,2308
1777572557346,2229
1777572557348,2191
1777572557330,2210
1777572557332,2294
1777572557334,2375
1777572557336,2469
1777572557338,2501
1777572557340,2491
1777572557342,2424
1777572557344,2328
1777572557346,2230
1777572557348,2178
1777572557393,2195
1777572557395,2259
1777572557397,2344
1777572557399,2423
1777572557401,2459
1777572557403,2458
1777572557405,2417
1777572557407,2352
1777572557409,2301
1777572557411,2314
1777572557393,2416
1777572557395,2575
1777572557397,2744
1777572557399,2912
1777572557401,3037
1777572557403,3161
1777572557405,3219
1777572557407,3229
1777572557409,3205
1777572557411,3182
1777572557393,3188
1777572557395,3186
1777572557397,3169
1777572557399,3111
1777572557401,3025
1777572557403,2909
1777572557405,2745
1777572557407,2543
1777572557409,2346
1777572557411,2205
1777572557426,2144
1777572557428,2148
1777572557430,2179
1777572557432,2209
1777572557434,2218
1777572557436,2201
1777572557438,2147
1777572557440,2038
1777572557442,1994
1777572557444,1963
1777572557426,1992
1777572557428,2072
1777572557430,2167
1777572557432,2250
1777572557434,2302
1777572557436,2319
1777572557438,2291
1777572557440,2229
1777572557442,2164
1777572557444,2128
1777572557458,2146
1777572557460,2205
1777572557462,2282
1777572557464,2351
1777572557466,2390
1777572557468,2380
1777572557470,2334
1777572557472,2261
1777572557474,2187
1777572557476,2138
1777572557458,2173
1777572557460,2240
1777572557462,2322
1777572557464,2395
1777572557466,2435
1777572557468,2439
1777572557470,2398
1777572557472,2323
1777572557474,2233
1777572557476,2179
1777572557518,2178
1777572557520,2235
1777572557522,2319
1777572557524,2399
1777572557526,2455
1777572557528,2455
1777572557530,2407
1777572557532,2324
1777572557534,2251
1777572557536,2218
1777572557518,2232
1777572557520,2299
1777572557522,2380
1777572557524,2473
1777572557526,2510
1777572557528,2507
1777572557530,2473
1777572557532,2390
1777572557534,2299
1777572557536,2249
1777572557518,2259
1777572557520,2319
1777572557522,2409
1777572557524,2494
1777572557526,2544
1777572557528,2552
1777572557530,2514
1777572557532,2440
1777572557534,2364
1777572557536,2323
1777572557546,2337
1777572557548,2403
1777572557550,2481
1777572557552,2556
1777572557554,2598
1777572557556,2627
1777572557558,2616
1777572557560,2545
1777572557562,2467
1777572557564,2416
1777572557546,2430
1777572557548,2492
1777572557550,2581
1777572557552,2661
1777572557554,2712
1777572557556,2735
1777572557558,2711
1777572557560,2646
1777572557562,2566
1777572557564,2513
1777572557601,2517
1777572557603,2577
1777572557605,2659
1777572557607,2732
1777572557609,2763
1777572557611,2769
1777572557613,2729
1777572557615,2643
1777572557617,2583
1777572557619,2519
1777572557601,2510
1777572557603,2574
1777572557605,2654
1777572557607,2727
1777572557609,2770
1777572557611,2765
1777572557613,2705
1777572557615,2605
1777572557617,2499
1777572557619,2429
1777572557629,2410
1777572557631,2435
1777572557633,2483
1777572557635,2528
1777572557637,2555
1777572557639,2546
1777572557641,2492
1777572557643,2397
1777572557645,2292
1777572557647,2204
1777572557629,2215
1777572557631,2260
1777572557633,2313
1777572557635,2364
1777572557637,2401
1777572557639,2400
1777572557641,2346
1777572557643,2255
1777572557645,2152
1777572557647,2079
1777572557683,2062
1777572557685,2106
1777572557687,2172
1777572557689,2245
1777572557691,2284
1777572557693,2284
1777572557695,2239
1777572557697,2155
1777572557699,2070
1777572557701,2024
1777572557683,2023
1777572557685,2078
1777572557687,2132
1777572557689,2208
1777572557691,2232
1777572557693,2229
1777572557695,2190
1777572557697,2110
1777572557699,2021
1777572557701,1973
1777572557683,1978
1777572557685,2024
1777572557687,2101
1777572557689,2178
1777572557691,2230
1777572557693,2248
1777572557695,2217
1777572557697,2138
1777572557699,2047
1777572557701,1994
1777572557714,2005
1777572557716,2069
1777572557718,2149
1777572557720,2214
1777572557722,2226
1777572557724,2236
1777572557726,2196
1777572557728,2105
1777572557730,2012
1777572557732,1955
1777572557714,1964
1777572557716,2034
1777572557718,2121
1777572557720,2200
1777572557722,2250
1777572557724,2262
1777572557726,2217
1777572557728,2142
1777572557730,2069
1777572557732,2020
1777572557774,2024
1777572557776,2083
1777572557778,2158
1777572557780,2221
1777572557782,2265
1777572557784,2275
1777572557786,2243
1777572557788,2155
1777572557790,2100
1777572557792,2039
1777572557774,2033
1777572557776,2085
1777572557778,2165
1777572557780,2234
1777572557782,2272
1777572557784,2285
1777572557786,2258
1777572557788,2196
1777572557790,2110
1777572557792,2049
1777572557829,2045
1777572557831,2104
1777572557833,2177
1777572557835,2247
1777572557837,2288
1777572557839,2304
1777572557841,2278
1777572557843,2201
1777572557845,2104
1777572557847,2018
1777572557829,2039
1777572557831,2099
1777572557833,2181
1777572557835,2253
1777572557837,2297
1777572557839,2313
1777572557841,2298
1777572557843,2233
1777572557845,2147
1777572557847,2076
1777572557857,2054
1777572557859,2089
1777572557861,2168
1777572557863,2249
1777572557865,2303
1777572557867,2317
1777572557869,2285
1777572557871,2208
1777572557873,2122
1777572557875,2057
1777572557912,2040
1777572557914,2088
1777572557916,2148
1777572557918,2255
1777572557920,2308
1777572557922,2330
1777572557924,2303
1777572557926,2234
1777572557928,2145
1777572557930,2070
1777572557912,2051
1777572557914,2090
1777572557916,2164
1777572557918,2241
1777572557920,2298
1777572557922,2313
1777572557924,2273
1777572557926,2196
1777572557928,2109
1777572557930,2045
1777572557912,2040
1777572557914,2085
1777572557916,2151
1777572557918,2225
1777572557920,2273
1777572557922,2324
1777572557924,2293
1777572557926,2210
1777572557928,2108
1777572557930,2040
1777572557912,2031
1777572557914,2090
1777572557916,2164
1777572557918,2228
1777572557920,2272
1777572557922,2292
1777572557924,2272
1777572557926,2210
1777572557928,2134
1777572557930,2082
1777572557941,2074
1777572557943,2116
1777572557945,2183
1777572557947,2243
1777572557949,2286
1777572557951,2300
1777572557953,2277
1777572557955,2186
1777572557957,2151
1777572557959,2086
1777572557941,2074
1777572557943,2127
1777572557945,2211
1777572557947,2277
1777572557949,2320
1777572557951,2335
1777572557953,2304
1777572557955,2238
1777572557957,2151
1777572557959,2086
1777572558000,2074
1777572558002,2118
1777572558004,2181
1777572558006,2256
1777572558008,2307
1777572558010,2329
1777572558012,2300
1777572558014,2223
1777572558016,2133
1777572558018,2055
1777572558000,2077
1777572558002,2137
1777572558004,2208
1777572558006,2274
1777572558008,2327
1777572558010,2344
1777572558012,2317
1777572558014,2246
1777572558016,2157
1777572558018,2084
1777572558031,2073
1777572558033,2120
1777572558035,2208
1777572558037,2290
1777572558039,2346
1777572558041,2369
1777572558043,2345
1777572558045,2288
1777572558047,2204
1777572558049,2128
1777572558031,2099
1777572558033,2145
1777572558035,2211
1777572558037,2311
1777572558039,2360
1777572558041,2381
1777572558043,2357
1777572558045,2294
1777572558047,2215
1777572558049,2144
1777572558031,2132
1777572558033,2181
1777572558035,2246
1777572558037,2314
1777572558039,2362
1777572558041,2375
1777572558043,2343
1777572558045,2273
1777572558047,2190
1777572558049,2118
1777572558126,2093
1777572558128,2126
1777572558130,2190
1777572558132,2263
1777572558134,2305
1777572558136,2349
1777572558138,2352
1777572558140,2291
1777572558142,2200
1777572558144,2118
1777572558126,2086
1777572558128,2112
1777572558130,2181
1777572558132,2256
1777572558134,2316
1777572558136,2343
1777572558138,2323
1777572558140,2271
1777572558142,2186
1777572558144,2112
1777572558126,2093
1777572558128,2133
1777572558130,2211
1777572558132,2296
1777572558134,2362
1777572558136,2388
1777572558138,2357
1777572558140,2295
1777572558142,2216
1777572558144,2146
1777572558126,2128
1777572558128,2161
1777572558130,2236
1777572558132,2321
1777572558134,2390
1777572558136,2420
1777572558138,2416
1777572558140,2365
1777572558142,2282
1777572558144,2207
1777572558161,2191
1777572558163,2226
1777572558165,2295
1777572558167,2380
1777572558169,2443
1777572558171,2472
1777572558173,2442
1777572558175,2353
1777572558177,2249
1777572558179,2160
1777572558161,2142
1777572558163,2199
1777572558165,2253
1777572558167,2317
1777572558169,2360
1777572558171,2386
1777572558173,2375
1777572558175,2326
1777572558177,2233
1777572558179,2149
1777572558223,2116
1777572558225,2140
1777572558227,2202
1777572558229,2268
1777572558231,2327
1777572558233,2359
1777572558235,2338
1777572558237,2279
1777572558239,2197
1777572558241,2127
1777572558223,2097
1777572558225,2136
1777572558227,2195
1777572558229,2296
1777572558231,2345
1777572558233,2365
1777572558235,2346
1777572558237,2284
1777572558239,2194
1777572558241,2122
1777572558223,2093
1777572558225,2134
1777572558227,2208
1777572558229,2286
1777572558231,2350
1777572558233,2384
1777572558235,2370
1777572558237,2307
1777572558239,2218
1777572558241,2137
1777572558255,2109
1777572558257,2127
1777572558259,2169
1777572558261,2226
1777572558263,2261
1777572558265,2288
1777572558267,2306
1777572558269,2252
1777572558271,2180
1777572558273,2127
1777572558255,2131
1777572558257,2220
1777572558259,2374
1777572558261,2549
1777572558263,2712
1777572558265,2858
1777572558267,2958
1777572558269,3019
1777572558271,3044
1777572558273,3062
1777572558318,3105
1777572558320,3174
1777572558322,3233
1777572558324,3267
1777572558326,3246
1777572558328,3167
1777572558330,3016
1777572558332,2798
1777572558334,2594
1777572558336,2388
1777572558318,2248
1777572558320,2191
1777572558322,2195
1777572558324,2214
1777572558326,2232
1777572558328,2227
1777572558330,2198
1777572558332,2127
1777572558334,2036
1777572558336,1954
1777572558377,1927
1777572558379,1965
1777572558381,2058
1777572558383,2153
1777572558385,2222
1777572558387,2260
1777572558389,2254
1777572558391,2202
1777572558393,2124
1777572558395,2039
1777572558377,2038
1777572558379,2075
1777572558381,2148
1777572558383,2226
1777572558385,2286
1777572558387,2336
1777572558389,2347
1777572558391,2319
1777572558393,2249
1777572558395,2175
1777572558429,2135
1777572558431,2158
1777572558433,2225
1777572558435,2308
1777572558437,2373
1777572558439,2399
1777572558441,2386
1777572558443,2330
1777572558445,2249
1777572558447,2177
1777572558429,2141
1777572558431,2169
1777572558433,2228
1777572558435,2329
1777572558437,2404
1777572558439,2452
1777572558441,2457
1777572558443,2414
1777572558445,2338
1777572558447,2256
1777572558429,2209
1777572558431,2225
1777572558433,2298
1777572558435,2385
1777572558437,2458
1777572558439,2503
1777572558441,2497
1777572558443,2457
1777572558445,2375
1777572558447,2296
1777572558453,2263
1777572558455,2293
1777572558457,2362
1777572558459,2446
1777572558461,2497
1777572558463,2542
1777572558465,2560
1777572558467,2516
1777572558469,2431
1777572558471,2335
1777572558453,2299
1777572558455,2335
1777572558457,2417
1777572558459,2511
1777572558461,2596
1777572558463,2648
1777572558465,2663
1777572558467,2617
1777572558469,2540
1777572558471,2465
1777572558486,2440
1777572558488,2472
1777572558490,2548
1777572558492,2633
1777572558494,2700
1777572558496,2741
1777572558498,2753
1777572558500,2703
1777572558502,2660
1777572558504,2586
1777572558486,2543
1777572558488,2562
1777572558490,2627
1777572558492,2713
1777572558494,2792
1777572558496,2848
1777572558498,2851
1777572558500,2812
1777572558502,2738
1777572558504,2654
1777572558542,2600
1777572558544,2607
1777572558546,2665
1777572558548,2737
1777572558550,2795
1777572558552,2827
1777572558554,2814
1777572558556,2745
1777572558558,2642
1777572558560,2523
1777572558542,2477
1777572558544,2480
1777572558546,2535
1777572558548,2595
1777572558550,2646
1777572558552,2688
1777572558554,2691
1777572558556,2629
1777572558558,2515
1777572558560,2382
1777572558590,2293
1777572558592,2279
1777572558594,2310
1777572558596,2360
1777572558598,2402
1777572558600,2422
1777572558602,2409
1777572558604,2356
1777572558606,2265
1777572558608,2172
1777572558590,2113
1777572558592,2126
1777572558594,2167
1777572558596,2256
1777572558598,2312
1777572558600,2332
1777572558602,2306
1777572558604,2244
1777572558606,2164
1777572558608,2097
1777572558590,2066
1777572558592,2087
1777572558594,2144
1777572558596,2216
1777572558598,2288
1777572558600,2333
1777572558602,2325
1777572558604,2272
1777572558606,2183
1777572558608,2084
1777572558614,2027
1777572558616,2035
1777572558618,2081
1777572558620,2152
1777572558622,2211
1777572558624,2279
1777572558626,2293
1777572558628,2248
1777572558630,2167
1777572558632,2087
1777572558614,2051
1777572558616,2069
1777572558618,2134
1777572558620,2211
1777572558622,2284
1777572558624,2332
1777572558626,2338
1777572558628,2291
1777572558630,2211
1777572558632,2118
1777572558677,2071
1777572558679,2087
1777572558681,2171
1777572558683,2260
1777572558685,2334
1777572558687,2374
1777572558689,2384
1777572558691,2334
1777572558693,2277
1777572558695,2188
1777572558677,2129
1777572558679,2125
1777572558681,2177
1777572558683,2254
1777572558685,2328
1777572558687,2392
1777572558689,2405
1777572558691,2366
1777572558693,2297
1777572558695,2226
1777572558709,2182
1777572558711,2193
1777572558713,2241
1777572558715,2306
1777572558717,2370
1777572558719,2423
1777572558721,2439
1777572558723,2401
1777572558725,2323
1777572558727,2219
1777572558709,2178
1777572558711,2185
1777572558713,2248
1777572558715,2329
1777572558717,2408
1777572558719,2455
1777572558721,2467
1777572558723,2437
1777572558725,2364
1777572558727,2274
1777572558747,2210
1777572558749,2200
1777572558751,2246
1777572558753,2321
1777572558755,2388
1777572558757,2432
1777572558759,2432
1777572558761,2401
1777572558763,2317
1777572558765,2218
1777572558747,2154
1777572558749,2167
1777572558751,2224
1777572558753,2340
1777572558755,2402
1777572558757,2443
1777572558759,2438
1777572558761,2394
1777572558763,2323
1777572558765,2238
1777572558748,2182
1777572558750,2190
1777572558752,2243
1777572558754,2314
1777572558756,2382
1777572558758,2428
1777572558760,2435
1777572558762,2392
1777572558764,2308
1777572558766,2215
1777572558807,2162
1777572558809,2177
1777572558811,2248
1777572558813,2355
1777572558815,2424
1777572558817,2479
1777572558819,2490
1777572558821,2446
1777572558823,2368
1777572558825,2278
1777572558807,2215
1777572558809,2205
1777572558811,2250
1777572558813,2325
1777572558815,2391
1777572558817,2437
1777572558819,2442
1777572558821,2402
1777572558823,2318
1777572558825,2228
1777572558839,2173
1777572558841,2173
1777572558843,2232
1777572558845,2312
1777572558847,2390
1777572558849,2440
1777572558851,2457
1777572558853,2419
1777572558855,2370
1777572558857,2273
1777572558839,2211
1777572558841,2216
1777572558843,2274
1777572558845,2355
1777572558847,2428
1777572558849,2481
1777572558851,2484
1777572558853,2435
1777572558855,2350
1777572558857,2251
1777572558904,2173
1777572558906,2170
1777572558908,2227
1777572558910,2319
1777572558912,2410
1777572558914,2466
1777572558916,2469
1777572558918,2421
1777572558920,2334
1777572558922,2222
1777572558904,2183
1777572558906,2186
1777572558908,2237
1777572558910,2319
1777572558912,2421
1777572558914,2464
1777572558916,2483
1777572558918,2460
1777572558920,2392
1777572558922,2304
1777572558904,2233
1777572558906,2222
1777572558908,2272
1777572558910,2343
1777572558912,2401
1777572558914,2442
1777572558916,2456
1777572558918,2428
1777572558920,2352
1777572558922,2265
1777572558935,2196
1777572558937,2190
1777572558939,2220
1777572558941,2346
1777572558943,2429
1777572558945,2490
1777572558947,2504
1777572558949,2469
1777572558951,2391
1777572558953,2294
1777572558935,2225
1777572558937,2208
1777572558939,2246
1777572558941,2312
1777572558943,2375
1777572558945,2419
1777572558947,2437
1777572558949,2401
1777572558951,2323
1777572558953,2238
1777572558971,2180
1777572558973,2173
1777572558975,2223
1777572558977,2304
1777572558979,2363
1777572558981,2448
1777572558983,2472
1777572558985,2443
1777572558987,2369
1777572558989,2278
1777572558971,2211
1777572558973,2206
1777572558975,2262
1777572558977,2346
1777572558979,2424
1777572558981,2493
1777572558983,2502
1777572558985,2456
1777572558987,2362
1777572558989,2255
1777572559038,2172
1777572559040,2155
1777572559042,2205
1777572559044,2299
1777572559046,2386
1777572559048,2438
1777572559050,2458
1777572559052,2419
1777572559054,2380
1777572559056,2295
1777572559038,2226
1777572559040,2211
1777572559042,2262
1777572559044,2339
1777572559046,2416
1777572559048,2478
1777572559050,2498
1777572559052,2472
1777572559054,2396
1777572559056,2301
1777572559069,2243
1777572559071,2233
1777572559073,2275
1777572559075,2354
1777572559077,2431
1777572559079,2490
1777572559081,2509
1777572559083,2486
1777572559085,2408
1777572559087,2290
1777572559069,2244
1777572559071,2231
1777572559073,2260
1777572559075,2328
1777572559077,2398
1777572559079,2449
1777572559081,2459
1777572559083,2420
1777572559085,2343
1777572559087,2248
1777572559069,2169
1777572559071,2150
1777572559073,2201
1777572559075,2282
1777572559077,2370
1777572559079,2438
1777572559081,2461
1777572559083,2433
1777572559085,2353
1777572559087,2257
1777572559133,2183
1777572559135,2168
1777572559137,2185
1777572559139,2296
1777572559141,2366
1777572559143,2420
1777572559145,2443
1777572559147,2421
1777572559149,2343
1777572559151,2235
1777572559133,2147
1777572559135,2126
1777572559137,2177
1777572559139,2264
1777572559141,2343
1777572559143,2407
1777572559145,2426
1777572559147,2401
1777572559149,2337
1777572559151,2241
1777572559165,2172
1777572559167,2148
1777572559169,2180
1777572559171,2259
1777572559173,2334
1777572559175,2446
1777572559177,2507
1777572559179,2531
1777572559181,2530
1777572559183,2510
1777572559165,2517
1777572559167,2597
1777572559169,2754
1777572559171,2955
1777572559173,3143
1777572559175,3309
1777572559177,3416
1777572559179,3439
1777572559181,3350
1777572559183,3181
1777572559199,2989
1777572559201,2828
1777572559203,2710
1777572559205,2631
1777572559207,2571
1777572559209,2515
1777572559211,2446
1777572559213,2332
1777572559215,2226
1777572559217,2076
1777572559199,1951
1777572559201,1891
1777572559203,1909
1777572559205,1980
1777572559207,2071
1777572559209,2152
1777572559211,2191
1777572559213,2182
1777572559215,2130
1777572559217,2052
1777572559263,1993
1777572559265,1985
1777572559267,2038
1777572559269,2131
1777572559271,2224
1777572559273,2299
1777572559275,2329
1777572559277,2323
1777572559279,2267
1777572559281,2161
1777572559263,2123
1777572559265,2121
1777572559267,2162
1777572559269,2248
1777572559271,2333
1777572559273,2401
1777572559275,2428
1777572559277,2404
1777572559279,2335
1777572559281,2247
1777572559263,2183
1777572559265,2171
1777572559267,2216
1777572559269,2296
1777572559271,2376
1777572559273,2441
1777572559275,2472
1777572559277,2453
1777572559279,2394
1777572559281,2307
1777572559294,2219
1777572559296,2191
1777572559298,2209
1777572559300,2342
1777572559302,2425
1777572559304,2485
1777572559306,2506
1777572559308,2476
1777572559310,2405
1777572559312,2319
1777572559294,2242
1777572559296,2220
1777572559298,2264
1777572559300,2348
1777572559302,2428
1777572559304,2511
1777572559306,2551
1777572559308,2541
1777572559310,2479
1777572559312,2395
1777572559361,2325
1777572559363,2305
1777572559365,2346
1777572559367,2431
1777572559369,2500
1777572559371,2595
1777572559373,2628
1777572559375,2607
1777572559377,2543
1777572559379,2453
1777572559361,2391
1777572559363,2377
1777572559365,2414
1777572559367,2493
1777572559369,2598
1777572559371,2688
1777572559373,2733
1777572559375,2723
1777572559377,2666
1777572559379,2585
1777572559392,2515
1777572559394,2499
1777572559396,2547
1777572559398,2638
1777572559400,2733
1777572559402,2796
1777572559404,2822
1777572559406,2782
1777572559408,2742
1777572559410,2638
1777572559392,2547
1777572559394,2521
1777572559396,2554
1777572559398,2638
1777572559400,2722
1777572559402,2789
1777572559404,2822
1777572559406,2808
1777572559408,2751
1777572559410,2661
1777572559424,2580
1777572559426,2541
1777572559428,2556
1777572559430,2613
1777572559432,2676
1777572559434,2724
1777572559436,2733
1777572559438,2702
1777572559440,2624
1777572559442,2491
1777572559424,2406
1777572559426,2354
1777572559428,2356
1777572559430,2409
1777572559432,2466
1777572559434,2516
1777572559436,2527
1777572559438,2496
1777572559440,2415
1777572559442,2300
1777572559424,2204
1777572559426,2165
1777572559428,2182
1777572559430,2235
1777572559432,2296
1777572559434,2346
1777572559436,2359
1777572559438,2324
1777572559440,2247
1777572559442,2146
1777572559498,2041
1777572559500,1994
1777572559502,1984
1777572559504,2093
1777572559506,2180
1777572559508,2258
1777572559510,2297
1777572559512,2282
1777572559514,2209
1777572559516,2101
1777572559498,2005
1777572559500,1970
1777572559502,2004
1777572559504,2084
1777572559506,2170
1777572559508,2245
1777572559510,2278
1777572559512,2268
1777572559514,2207
1777572559516,2111
1777572559534,2009
1777572559536,1961
1777572559538,1980
1777572559540,2048
1777572559542,2113
1777572559544,2208
1777572559546,2257
1777572559548,2251
1777572559550,2192
1777572559552,2096
1777572559534,2007
1777572559536,1975
1777572559538,2002
1777572559540,2075
1777572559542,2166
1777572559544,2236
1777572559546,2271
1777572559548,2264
1777572559550,2211
1777572559552,2124
1777572559610,2040
1777572559612,2001
1777572559614,2018
1777572559616,2085
