timestamp_ms,ecg_raw
1777324650879,1841
1777324650881,1951
1777324650883,2030
1777324650885,2061
1777324650887,2035
1777324650889,1967
1777324650891,1839
1777324650893,1735
1777324650895,1692
1777324650897,1723
1777324650879,1848
1777324650881,2060
1777324650883,2015
1777324650885,2121
1777324650887,2045
1777324650889,1978
1777324650891,1870
1777324650893,1761
1777324650895,1725
1777324650897,1789
1777324650911,1900
1777324650913,1991
1777324650915,2039
1777324650917,2048
1777324650919,2017
1777324650921,1943
1777324650923,1813
1777324650925,1691
1777324650927,1646
1777324650929,1695
1777324650912,2015
1777324650914,1914
1777324650916,2031
1777324650918,2128
1777324650920,2030
1777324650922,1975
1777324650924,1870
1777324650926,1787
1777324650928,1764
1777324650930,1803
1777324650977,1875
1777324650979,1934
1777324650981,1966
1777324650983,1980
1777324650985,1966
1777324650987,1907
1777324650989,1799
1777324650991,1704
1777324650993,1676
1777324650995,1727
1777324650977,1831
1777324650979,2130
1777324650981,1992
1777324650983,2042
1777324650985,2090
1777324650987,2012
1777324650989,1922
1777324650991,1822
1777324650993,1777
1777324650995,1819
1777324650977,1907
1777324650979,1977
1777324650981,2026
1777324650983,2030
1777324650985,2005
1777324650987,1948
1777324650989,1849
1777324650991,1737
1777324650993,1685
1777324650995,1726
1777324651010,2048
1777324651012,1924
1777324651014,2030
1777324651016,2025
1777324651018,2104
1777324651020,1945
1777324651022,1846
1777324651024,1761
1777324651026,1725
1777324651028,1742
1777324651010,1827
1777324651012,1932
1777324651014,1996
1777324651016,2008
1777324651018,1976
1777324651020,1907
1777324651022,1803
1777324651024,1706
1777324651026,1671
1777324651028,1717
1777324651043,1857
1777324651045,2064
1777324651047,1992
1777324651049,2081
1777324651051,1989
1777324651053,1947
1777324651055,1850
1777324651057,1755
1777324651059,1723
1777324651061,1770
1777324651043,1877
1777324651045,1966
1777324651047,1995
1777324651049,1990
1777324651051,1971
1777324651053,1919
1777324651055,1800
1777324651057,1688
1777324651059,1666
1777324651061,1740
1777324651109,2072
1777324651111,1953
1777324651113,2062
1777324651115,2148
1777324651117,2084
1777324651119,2042
1777324651121,1957
1777324651123,1856
1777324651125,1762
1777324651127,1725
1777324651109,1776
1777324651111,1866
1777324651113,1940
1777324651115,1979
1777324651117,1982
1777324651119,1954
1777324651121,1884
1777324651123,1810
1777324651125,1788
1777324651127,1834
1777324651142,1963
1777324651144,2162
1777324651146,2079
1777324651148,2146
1777324651150,2039
1777324651152,1985
1777324651154,1913
1777324651156,1848
1777324651158,1832
1777324651160,1894
1777324651142,2015
1777324651144,2121
1777324651146,2186
1777324651148,2215
1777324651150,2177
1777324651152,2084
1777324651154,1970
1777324651156,1831
1777324651158,1742
1777324651160,1785
1777324651142,2150
1777324651144,2073
1777324651146,2209
1777324651148,2303
1777324651150,2179
1777324651152,2104
1777324651154,1982
1777324651156,1864
1777324651158,1805
1777324651160,1840
1777324651175,1951
1777324651177,2070
1777324651179,2125
1777324651181,2132
1777324651183,2092
1777324651185,2033
1777324651187,1952
1777324651189,1876
1777324651191,1861
1777324651193,1911
1777324651175,2041
1777324651177,2268
1777324651179,2194
1777324651181,2269
1777324651183,2138
1777324651185,2085
1777324651187,2002
1777324651189,1928
1777324651191,1899
1777324651193,1903
1777324651240,1977
1777324651242,2100
1777324651244,2203
1777324651246,2245
1777324651248,2216
1777324651250,2149
1777324651252,2022
1777324651254,1883
1777324651256,1808
1777324651258,1836
1777324651240,2122
1777324651242,2000
1777324651244,2086
1777324651246,2160
1777324651248,2054
1777324651250,2011
1777324651252,1937
1777324651254,1850
1777324651256,1802
1777324651258,1818
1777324651273,1893
1777324651275,1996
1777324651277,2073
1777324651279,2100
1777324651281,2060
1777324651283,1987
1777324651285,1877
1777324651287,1765
1777324651289,1733
1777324651291,1785
1777324651273,1923
1777324651275,2138
1777324651277,2078
1777324651279,2176
1777324651281,2068
1777324651283,1979
1777324651285,1892
1777324651287,1819
1777324651289,1822
1777324651291,1905
1777324651338,2032
1777324651340,2115
1777324651342,2140
1777324651344,2139
1777324651346,2092
1777324651348,2006
1777324651350,1900
1777324651352,1808
1777324651354,1788
1777324651356,1841
1777324651338,2081
1777324651340,2102
1777324651342,2162
1777324651344,2263
1777324651346,2181
1777324651348,2175
1777324651350,2147
1777324651352,2132
1777324651354,2185
1777324651356,2328
1777324651338,2545
1777324651340,2782
1777324651342,2986
1777324651344,3178
1777324651346,3342
1777324651348,3433
1777324651350,3454
1777324651352,3432
1777324651354,3396
1777324651356,3359
1777324651370,3331
1777324651372,3303
1777324651374,2925
1777324651376,2563
1777324651378,2260
1777324651380,1771
1777324651382,1420
1777324651384,1192
1777324651386,1146
1777324651388,1238
1777324651370,1375
1777324651372,1501
1777324651374,1595
1777324651376,1676
1777324651378,1726
1777324651380,1716
1777324651382,1654
1777324651384,1590
1777324651386,1584
1777324651388,1659
1777324651403,1993
1777324651405,1947
1777324651407,2134
1777324651409,2267
1777324651411,2205
1777324651413,2161
1777324651415,2099
1777324651417,2025
1777324651419,1966
1777324651421,1974
1777324651403,2048
1777324651405,2132
1777324651407,2162
1777324651409,2176
1777324651411,2183
1777324651413,2140
1777324651415,2040
1777324651417,1933
1777324651419,1901
1777324651421,1961
1777324651470,2127
1777324651472,2371
1777324651474,2315
1777324651476,2411
1777324651478,2309
1777324651480,2254
1777324651482,2154
1777324651484,2055
1777324651486,2044
1777324651488,2097
1777324651470,2188
1777324651472,2275
1777324651474,2334
1777324651476,2368
1777324651478,2383
1777324651480,2368
1777324651482,2307
1777324651484,2207
1777324651486,2142
1777324651488,2130
1777324651503,2375
1777324651505,2260
1777324651507,2367
1777324651509,2455
1777324651511,2384
1777324651513,2359
1777324651515,2296
1777324651517,2197
1777324651519,2139
1777324651521,2161
1777324651503,2249
1777324651505,2376
1777324651507,2491
1777324651509,2568
1777324651511,2582
1777324651513,2531
1777324651515,2432
1777324651517,2321
1777324651519,2257
1777324651521,2276
1777324651503,2397
1777324651505,2600
1777324651507,2531
1777324651509,2610
1777324651511,2525
1777324651513,2509
1777324651515,2458
1777324651517,2381
1777324651519,2344
1777324651521,2369
1777324651536,2457
1777324651538,2567
1777324651540,2651
1777324651542,2695
1777324651544,2684
1777324651546,2617
1777324651548,2516
1777324651550,2425
1777324651552,2405
1777324651554,2478
1777324651536,2802
1777324651538,2707
1777324651540,2813
1777324651542,2876
1777324651544,2749
1777324651546,2674
1777324651548,2569
1777324651550,2462
1777324651552,2424
1777324651554,2467
1777324651603,2577
1777324651605,2689
1777324651607,2752
1777324651609,2760
1777324651611,2702
1777324651613,2604
1777324651615,2479
1777324651617,2362
1777324651619,2299
1777324651621,2314
1777324651603,2435
1777324651605,2628
1777324651607,2547
1777324651609,2605
1777324651611,2488
1777324651613,2417
1777324651615,2291
1777324651617,2158
1777324651619,2073
1777324651621,2054
1777324651636,2123
1777324651638,2259
1777324651640,2373
1777324651642,2393
1777324651644,2312
1777324651646,2165
1777324651648,2002
1777324651650,1860
1777324651652,1802
1777324651654,1842
1777324651636,2153
1777324651638,2037
1777324651640,2122
1777324651642,2206
1777324651644,2099
1777324651646,2039
1777324651648,1930
1777324651650,1807
1777324651652,1749
1777324651654,1782
1777324651669,1882
1777324651671,1999
1777324651673,2073
1777324651675,2107
1777324651677,2095
1777324651679,2020
1777324651681,1909
1777324651683,1801
1777324651685,1748
1777324651687,1805
1777324651669,1932
1777324651671,2253
1777324651673,2171
1777324651675,2167
1777324651677,2180
1777324651679,2035
1777324651681,1920
1777324651683,1815
1777324651685,1797
1777324651687,1890
1777324651669,2013
1777324651671,2116
1777324651673,2177
1777324651675,2210
1777324651677,2210
1777324651679,2138
1777324651681,2013
1777324651683,1912
1777324651685,1879
1777324651687,1926
1777324651735,2245
1777324651737,2141
1777324651739,2252
1777324651741,2262
1777324651743,2361
1777324651745,2210
1777324651747,2097
1777324651749,1989
1777324651751,1936
1777324651753,1948
1777324651735,2007
1777324651737,2096
1777324651739,2186
1777324651741,2247
1777324651743,2261
1777324651745,2226
1777324651747,2144
1777324651749,2057
1777324651751,2013
1777324651753,2046
1777324651768,2179
1777324651770,2404
1777324651772,2364
1777324651774,2456
1777324651776,2336
1777324651778,2268
1777324651780,2157
1777324651782,2044
1777324651784,1991
1777324651786,2021
1777324651768,2121
1777324651770,2229
1777324651772,2297
1777324651774,2316
1777324651776,2315
1777324651778,2274
1777324651780,2168
1777324651782,2038
1777324651784,1972
1777324651786,2005
1777324651834,2300
1777324651836,2175
1777324651838,2283
1777324651840,2386
1777324651842,2318
1777324651844,2314
1777324651846,2261
1777324651848,2172
1777324651850,2103
1777324651852,2076
1777324651834,2109
1777324651836,2177
1777324651838,2227
1777324651840,2251
1777324651842,2251
1777324651844,2216
1777324651846,2119
1777324651848,1994
1777324651850,1926
1777324651852,1937
1777324651867,2069
1777324651869,2304
1777324651871,2255
1777324651873,2350
1777324651875,2260
1777324651877,2200
1777324651879,2104
1777324651881,1997
1777324651883,1920
1777324651885,1913
1777324651867,2015
1777324651869,2161
1777324651871,2262
1777324651873,2266
1777324651875,2215
1777324651877,2156
1777324651879,2077
1777324651881,2006
1777324651883,1983
1777324651885,2007
1777324651867,2260
1777324651869,2106
1777324651871,2186
1777324651873,2249
1777324651875,2147
1777324651877,2093
1777324651879,1988
1777324651881,1896
1777324651883,1887
1777324651885,1967
1777324651899,2089
1777324651901,2199
1777324651903,2264
1777324651905,2265
1777324651907,2202
1777324651909,2103
1777324651911,1988
1777324651913,1881
1777324651915,1832
1777324651917,1882
1777324651899,2032
1777324651901,2287
1777324651903,2268
1777324651905,2381
1777324651907,2307
1777324651909,2244
1777324651911,2133
1777324651913,2016
1777324651915,1926
1777324651917,1905
1777324651963,1969
1777324651965,2083
1777324651967,2182
1777324651969,2241
1777324651971,2259
1777324651973,2210
1777324651975,2104
1777324651977,1994
1777324651979,1942
1777324651981,1972
1777324651963,2253
1777324651965,2147
1777324651967,2256
1777324651969,2307
1777324651971,2163
1777324651973,2111
1777324651975,2034
1777324651977,1971
1777324651979,1951
1777324651981,1992
1777324651995,2064
1777324651997,2149
1777324651999,2217
1777324652001,2244
1777324652003,2220
1777324652005,2141
1777324652007,2037
1777324652009,1969
1777324652011,1984
1777324652013,2075
1777324651995,2225
1777324651997,2436
1777324651999,2360
1777324652001,2411
1777324652003,2295
1777324652005,2227
1777324652007,2111
1777324652009,1983
1777324652011,1915
1777324652013,1965
1777324652028,2090
1777324652030,2222
1777324652032,2303
1777324652034,2326
1777324652036,2303
1777324652038,2250
1777324652040,2157
1777324652042,2058
1777324652044,2006
1777324652046,2028
1777324652028,2239
1777324652030,2210
1777324652032,2236
1777324652034,2309
1777324652036,2220
1777324652038,2161
1777324652040,2056
1777324652042,1958
1777324652044,1920
1777324652046,1968
1777324652028,2071
1777324652030,2181
1777324652032,2273
1777324652034,2298
1777324652036,2271
1777324652038,2216
1777324652040,2126
1777324652042,2035
1777324652044,1979
1777324652046,1988
1777324652094,2103
1777324652096,2317
1777324652098,2279
1777324652100,2316
1777324652102,2402
1777324652104,2242
1777324652106,2089
1777324652108,1931
1777324652110,1837
1777324652112,1847
1777324652094,1927
1777324652096,2048
1777324652098,2174
1777324652100,2242
1777324652102,2245
1777324652104,2204
1777324652106,2123
1777324652108,2008
1777324652110,1933
1777324652112,1937
1777324652128,2201
1777324652130,2047
1777324652132,2144
1777324652134,2228
1777324652136,2143
1777324652138,2079
1777324652140,1933
1777324652142,1831
1777324652144,1836
1777324652146,1921
1777324652128,2016
1777324652130,2103
1777324652132,2153
1777324652134,2159
1777324652136,2114
1777324652138,2032
1777324652140,1929
1777324652142,1841
1777324652144,1813
1777324652146,1853
1777324652191,1918
1777324652193,2173
1777324652195,2052
1777324652197,2019
1777324652199,2013
1777324652201,1897
1777324652203,1810
1777324652205,1764
1777324652207,1796
1777324652209,1891
1777324652191,2001
1777324652193,2100
1777324652195,2155
1777324652197,2161
1777324652199,2142
1777324652201,2075
1777324652203,1954
1777324652205,1852
1777324652207,1792
1777324652209,1807
1777324652222,2097
1777324652224,1979
1777324652226,2096
1777324652228,2179
1777324652230,2076
1777324652232,2036
1777324652234,1960
1777324652236,1904
1777324652238,1890
1777324652240,1937
1777324652223,2029
1777324652225,2121
1777324652227,2204
1777324652229,2239
1777324652231,2210
1777324652233,2081
1777324652235,1917
1777324652237,1797
1777324652239,1748
1777324652241,1809
1777324652223,1969
1777324652225,2220
1777324652227,2206
1777324652229,2313
1777324652231,2265
1777324652233,2294
1777324652235,2303
1777324652237,2329
1777324652239,2403
1777324652241,2561
1777324652255,2787
1777324652257,3021
1777324652259,3210
1777324652261,3318
1777324652263,3364
1777324652265,3357
1777324652267,3232
1777324652269,3016
1777324652271,2754
1777324652273,2521
1777324652255,2497
1777324652257,2045
1777324652259,1850
1777324652261,1674
1777324652263,1378
1777324652265,1230
1777324652267,1137
1777324652269,1104
1777324652271,1147
1777324652273,1273
1777324652319,1437
1777324652321,1600
1777324652323,1716
1777324652325,1778
1777324652327,1792
1777324652329,1769
1777324652331,1700
1777324652333,1636
1777324652335,1633
1777324652337,1720
1777324652319,1931
1777324652321,2239
1777324652323,2233
1777324652325,2279
1777324652327,2142
1777324652329,2060
1777324652331,1948
1777324652333,1843
1777324652335,1819
1777324652337,1891
1777324652391,1999
1777324652393,2087
1777324652395,2144
1777324652397,2173
1777324652399,2212
1777324652401,2237
1777324652403,2180
1777324652405,2103
1777324652407,2066
1777324652409,2086
1777324652391,2340
1777324652393,2166
1777324652395,2235
1777324652397,2301
1777324652399,2189
1777324652401,2126
1777324652403,2007
1777324652405,1916
1777324652407,1897
1777324652409,1959
1777324652391,2068
1777324652393,2183
1777324652395,2277
1777324652397,2326
1777324652399,2304
1777324652401,2216
1777324652403,2098
1777324652405,1988
1777324652407,1918
1777324652409,1938
1777324652392,2025
1777324652394,2331
1777324652396,2249
1777324652398,2286
1777324652400,2310
1777324652402,2208
1777324652404,2119
1777324652406,2034
1777324652408,1991
1777324652410,2034
1777324652392,2142
1777324652394,2251
1777324652396,2331
1777324652398,2358
1777324652400,2337
1777324652402,2269
1777324652404,2147
1777324652406,2044
1777324652408,2003
1777324652410,2061
1777324652462,2389
1777324652464,2303
1777324652466,2418
1777324652468,2410
1777324652470,2478
1777324652472,2320
1777324652474,2214
1777324652476,2143
1777324652478,2136
1777324652480,2217
1777324652462,2351
1777324652464,2482
1777324652466,2544
1777324652468,2520
1777324652470,2466
1777324652472,2403
1777324652474,2324
1777324652476,2265
1777324652478,2231
1777324652480,2261
1777324652532,2373
1777324652534,2571
1777324652536,2526
1777324652538,2612
1777324652540,2571
1777324652542,2524
1777324652544,2427
1777324652546,2317
1777324652548,2253
1777324652550,2276
1777324652532,2359
1777324652534,2440
1777324652536,2483
1777324652538,2494
1777324652540,2471
1777324652542,2395
1777324652544,2267
1777324652546,2135
1777324652548,2050
1777324652550,2051
1777324652532,2342
1777324652534,2237
1777324652536,2367
1777324652538,2454
1777324652540,2334
1777324652542,2206
1777324652544,2007
1777324652546,1828
1777324652548,1725
1777324652550,1719
1777324652532,1791
1777324652534,1870
1777324652536,1920
1777324652538,1931
1777324652540,1930
1777324652542,1903
1777324652544,1824
1777324652546,1744
1777324652548,1690
1777324652550,1669
1777324652605,1759
1777324652607,1950
1777324652609,1891
1777324652611,1980
1777324652613,1879
1777324652615,1825
1777324652617,1735
1777324652619,1657
1777324652621,1626
1777324652623,1664
1777324652605,1746
1777324652607,1800
1777324652609,1825
1777324652611,1822
1777324652613,1788
1777324652615,1716
1777324652617,1613
1777324652619,1535
1777324652621,1524
1777324652623,1569
1777324652605,1882
1777324652607,1767
1777324652609,1903
1777324652611,1994
1777324652613,1879
1777324652615,1811
1777324652617,1689
1777324652619,1569
1777324652621,1499
1777324652623,1508
1777324652642,1588
1777324652644,1684
1777324652646,1765
1777324652648,1816
1777324652650,1815
1777324652652,1774
1777324652654,1681
1777324652656,1600
1777324652658,1564
1777324652660,1575
1777324652642,1668
1777324652644,1844
1777324652646,1761
1777324652648,1874
1777324652650,1746
1777324652652,1694
1777324652654,1599
1777324652656,1504
1777324652658,1471
1777324652660,1517
1777324652677,1640
1777324652679,1793
1777324652681,1918
1777324652683,1940
1777324652685,1864
1777324652687,1742
1777324652689,1594
1777324652691,1475
1777324652693,1433
1777324652695,1469
1777324652677,1780
1777324652679,1664
1777324652681,1805
1777324652683,1909
1777324652685,1831
1777324652687,1786
1777324652689,1678
1777324652691,1589
1777324652693,1573
1777324652695,1637
1777324652713,1713
1777324652715,1779
1777324652717,1813
1777324652719,1820
1777324652721,1800
1777324652723,1753
1777324652725,1653
1777324652727,1550
1777324652729,1507
1777324652731,1546
1777324652713,1715
1777324652715,1962
1777324652717,1870
1777324652719,1921
1777324652721,1775
1777324652723,1719
1777324652725,1640
1777324652727,1548
1777324652729,1511
1777324652731,1551
1777324652784,1630
1777324652786,1708
1777324652788,1772
1777324652790,1817
1777324652792,1820
1777324652794,1767
1777324652796,1664
1777324652798,1556
1777324652800,1480
1777324652802,1496
1777324652784,1743
1777324652786,1746
1777324652788,1787
1777324652790,1848
1777324652792,1742
1777324652794,1722
1777324652796,1657
1777324652798,1576
1777324652800,1523
1777324652802,1554
1777324652784,1647
1777324652786,1766
1777324652788,1814
1777324652790,1792
1777324652792,1728
1777324652794,1654
1777324652796,1585
1777324652798,1519
1777324652800,1502
1777324652802,1546
1777324652819,1669
1777324652821,1868
1777324652823,1791
1777324652825,1786
1777324652827,1870
1777324652829,1697
1777324652831,1572
1777324652833,1465
1777324652835,1439
1777324652837,1488
1777324652819,1601
1777324652821,1716
1777324652823,1813
1777324652825,1865
1777324652827,1852
1777324652829,1768
1777324652831,1646
1777324652833,1539
1777324652835,1489
1777324652837,1511
1777324652855,1819
1777324652857,1697
1777324652859,1809
1777324652861,1881
1777324652863,1741
1777324652865,1668
1777324652867,1554
1777324652869,1455
1777324652871,1417
1777324652873,1444
1777324652855,1531
1777324652857,1636
1777324652859,1709
1777324652861,1721
1777324652863,1671
1777324652865,1580
1777324652867,1445
1777324652869,1335
1777324652871,1311
1777324652873,1370
1777324652891,1551
1777324652893,1815
1777324652895,1780
1777324652897,1860
1777324652899,1780
1777324652901,1690
1777324652903,1547
1777324652905,1413
1777324652907,1353
1777324652909,1357
1777324652891,1439
1777324652893,1562
1777324652895,1665
1777324652897,1731
1777324652899,1747
1777324652901,1708
1777324652903,1611
1777324652905,1492
1777324652907,1414
1777324652909,1419
1777324652963,1720
1777324652965,1580
1777324652967,1678
1777324652969,1751
1777324652971,1624
1777324652973,1580
1777324652975,1491
1777324652977,1391
1777324652979,1331
1777324652981,1347
1777324652963,1419
1777324652965,1506
1777324652967,1567
1777324652969,1592
1777324652971,1559
1777324652973,1475
1777324652975,1375
1777324652977,1328
1777324652979,1346
1777324652981,1400
1777324652963,1519
1777324652965,1745
1777324652967,1686
1777324652969,1775
1777324652971,1690
1777324652973,1642
1777324652975,1538
1777324652977,1440
1777324652979,1390
1777324652981,1404
1777324652998,1485
1777324653000,1572
1777324653002,1622
1777324653004,1665
1777324653006,1614
1777324653008,1531
1777324653010,1416
1777324653012,1327
1777324653014,1298
1777324653016,1337
1777324652998,1656
1777324653000,1524
1777324653002,1627
1777324653004,1676
1777324653006,1554
1777324653008,1486
1777324653010,1370
1777324653012,1245
1777324653014,1181
1777324653016,1192
1777324653034,1261
1777324653036,1348
1777324653038,1421
1777324653040,1478
1777324653042,1480
1777324653044,1452
1777324653046,1358
1777324653048,1257
1777324653050,1197
1777324653052,1215
1777324653034,1338
1777324653036,1549
1777324653038,1476
1777324653040,1570
1777324653042,1488
1777324653044,1457
1777324653046,1362
1777324653048,1266
1777324653050,1235
1777324653052,1273
1777324653069,1353
1777324653071,1441
1777324653073,1495
1777324653075,1508
1777324653077,1472
1777324653079,1412
1777324653081,1322
1777324653083,1226
1777324653085,1201
1777324653087,1244
1777324653069,1552
1777324653071,1423
1777324653073,1532
1777324653075,1585
1777324653077,1414
1777324653079,1342
1777324653081,1266
1777324653083,1194
1777324653085,1165
1777324653087,1204
1777324653139,1308
1777324653141,1448
1777324653143,1595
1777324653145,1735
1777324653147,1825
1777324653149,1877
1777324653151,1919
1777324653153,1969
1777324653155,2067
1777324653157,2239
1777324653139,2452
1777324653141,2847
1777324653143,2856
1777324653145,2926
1777324653147,2900
1777324653149,2648
1777324653151,2342
1777324653153,1989
1777324653155,1675
1777324653157,1407
1777324653139,1198
1777324653141,1055
1777324653143,965
1777324653145,908
1777324653147,867
1777324653149,844
1777324653151,799
1777324653153,733
1777324653155,724
1777324653157,806
1777324653204,1124
1777324653206,1166
1777324653208,1296
1777324653210,1345
1777324653212,1485
1777324653214,1394
1777324653216,1386
1777324653218,1373
1777324653220,1373
1777324653222,1400
1777324653204,1477
1777324653206,1599
1777324653208,1712
1777324653210,1792
1777324653212,1809
1777324653214,1752
1777324653216,1656
1777324653218,1573
1777324653220,1555
1777324653222,1612
1777324653204,1769
1777324653206,2011
1777324653208,1970
1777324653210,2076
1777324653212,1942
1777324653214,1857
1777324653216,1754
1777324653218,1653
1777324653220,1632
1777324653222,1698
1777324653204,1815
1777324653206,1933
1777324653208,2027
1777324653210,2067
1777324653212,2049
1777324653214,1974
1777324653216,1880
1777324653218,1787
1777324653220,1733
1777324653222,1767
1777324653269,2082
1777324653271,1979
1777324653273,2106
1777324653275,2231
1777324653277,2153
1777324653279,2122
1777324653281,2032
1777324653283,1936
1777324653285,1905
1777324653287,1929
1777324653269,2013
1777324653271,2129
1777324653273,2205
1777324653275,2240
1777324653277,2229
1777324653279,2169
1777324653281,2084
1777324653283,2015
1777324653285,1999
1777324653287,2058
1777324653302,2211
1777324653304,2438
1777324653306,2383
1777324653308,2448
1777324653310,2341
1777324653312,2280
1777324653314,2188
1777324653316,2117
1777324653318,2112
1777324653320,2170
1777324653302,2254
1777324653304,2326
1777324653306,2372
1777324653308,2407
1777324653310,2414
1777324653312,2379
1777324653314,2308
1777324653316,2247
1777324653318,2224
1777324653320,2266
1777324653302,2546
1777324653304,2494
1777324653306,2649
1777324653308,2775
1777324653310,2655
1777324653312,2552
1777324653314,2397
1777324653316,2274
1777324653318,2233
1777324653320,2266
1777324653334,2345
1777324653336,2442
1777324653338,2522
1777324653340,2578
1777324653342,2559
1777324653344,2485
1777324653346,2376
1777324653348,2286
1777324653350,2258
1777324653352,2295
1777324653334,2420
1777324653336,2612
1777324653338,2517
1777324653340,2556
1777324653342,2411
1777324653344,2301
1777324653346,2145
1777324653348,2005
1777324653350,1969
1777324653352,2023
1777324653397,2105
1777324653399,2178
1777324653401,2213
1777324653403,2217
1777324653405,2172
1777324653407,2062
1777324653409,1916
1777324653411,1793
1777324653413,1730
1777324653415,1745
1777324653397,2027
1777324653399,1900
1777324653401,2021
1777324653403,2117
1777324653405,2030
1777324653407,1955
1777324653409,1799
1777324653411,1645
1777324653413,1569
1777324653415,1591
1777324653429,1650
1777324653431,1721
1777324653433,1798
1777324653435,1862
1777324653437,1880
1777324653439,1837
1777324653441,1738
1777324653443,1612
1777324653445,1540
1777324653447,1554
1777324653429,1682
1777324653431,1900
1777324653433,1838
1777324653435,1922
1777324653437,1792
1777324653439,1698
1777324653441,1573
1777324653443,1468
1777324653445,1419
1777324653447,1450
1777324653493,1531
1777324653495,1623
1777324653497,1680
1777324653499,1690
1777324653501,1659
1777324653503,1593
1777324653505,1504
1777324653507,1433
1777324653509,1427
1777324653511,1486
1777324653493,1785
1777324653495,1664
1777324653497,1766
1777324653499,1858
1777324653501,1761
1777324653503,1708
1777324653505,1638
1777324653507,1547
1777324653509,1472
1777324653511,1458
1777324653493,1518
1777324653495,1657
1777324653497,1772
1777324653499,1832
1777324653501,1818
1777324653503,1736
1777324653505,1607
1777324653507,1482
1777324653509,1423
1777324653511,1461
1777324653524,1609
1777324653526,1855
1777324653528,1809
1777324653530,1809
1777324653532,1889
1777324653534,1705
1777324653536,1601
1777324653538,1500
1777324653540,1434
1777324653542,1427
1777324653524,1489
1777324653526,1606
1777324653528,1721
1777324653530,1790
1777324653532,1802
1777324653534,1754
1777324653536,1661
1777324653538,1566
1777324653540,1521
1777324653542,1558
1777324653558,1847
1777324653560,1687
1777324653562,1762
1777324653564,1856
1777324653566,1779
1777324653568,1767
1777324653570,1661
1777324653572,1510
1777324653574,1425
1777324653576,1426
1777324653558,1496
1777324653560,1605
1777324653562,1693
1777324653564,1741
1777324653566,1744
1777324653568,1680
1777324653570,1565
1777324653572,1457
1777324653574,1413
1777324653576,1454
1777324653621,1576
1777324653623,1765
1777324653625,1682
1777324653627,1755
1777324653629,1634
1777324653631,1569
1777324653633,1471
1777324653635,1375
1777324653637,1331
1777324653639,1360
1777324653621,1458
1777324653623,1575
1777324653625,1660
1777324653627,1691
1777324653629,1681
1777324653631,1623
1777324653633,1529
1777324653635,1442
1777324653637,1393
1777324653639,1398
1777324653654,1653
1777324653656,1468
1777324653658,1541
1777324653660,1622
1777324653662,1517
1777324653664,1492
1777324653666,1416
1777324653668,1320
1777324653670,1270
1777324653672,1306
1777324653654,1384
1777324653656,1468
1777324653658,1531
1777324653660,1566
1777324653662,1558
1777324653664,1479
1777324653666,1356
1777324653668,1261
1777324653670,1237
1777324653672,1283
1777324653654,1421
1777324653656,1650
1777324653658,1586
1777324653660,1691
1777324653662,1557
1777324653664,1474
1777324653666,1374
1777324653668,1273
1777324653670,1225
1777324653672,1286
1777324653717,1396
1777324653719,1496
1777324653721,1560
1777324653723,1585
1777324653725,1564
1777324653727,1484
1777324653729,1367
1777324653731,1267
1777324653733,1220
1777324653735,1267
1777324653717,1586
1777324653719,1465
1777324653721,1577
1777324653723,1662
1777324653725,1549
1777324653727,1508
1777324653729,1399
1777324653731,1242
1777324653733,1167
1777324653735,1202
1777324653749,1288
1777324653751,1395
1777324653753,1479
1777324653755,1527
1777324653757,1532
1777324653759,1475
1777324653761,1363
1777324653763,1247
1777324653765,1191
1777324653767,1225
1777324653749,1347
1777324653751,1569
1777324653753,1509
1777324653755,1600
1777324653757,1473
1777324653759,1409
1777324653761,1339
1777324653763,1284
1777324653765,1231
1777324653767,1241
1777324653783,1306
1777324653785,1397
1777324653787,1471
1777324653789,1506
1777324653791,1504
1777324653793,1447
1777324653795,1347
1777324653797,1259
1777324653799,1256
1777324653801,1328
1777324653783,1662
1777324653785,1529
1777324653787,1619
1777324653789,1691
1777324653791,1554
1777324653793,1470
1777324653795,1374
1777324653797,1304
1777324653799,1291
1777324653801,1355
1777324653844,1450
1777324653846,1546
1777324653848,1614
1777324653850,1628
1777324653852,1599
1777324653854,1521
1777324653856,1424
1777324653858,1326
1777324653860,1267
1777324653862,1302
1777324653844,1403
1777324653846,1738
1777324653848,1637
1777324653850,1671
1777324653852,1665
1777324653854,1527
1777324653856,1401
1777324653858,1330
1777324653860,1316
1777324653862,1366
1777324653844,1455
1777324653846,1552
1777324653848,1609
1777324653850,1626
1777324653852,1610
1777324653854,1541
1777324653856,1435
1777324653858,1333
1777324653860,1285
1777324653862,1325
1777324653876,1636
1777324653878,1508
1777324653880,1622
1777324653882,1629
1777324653884,1728
1777324653886,1557
1777324653888,1446
1777324653890,1339
1777324653892,1292
1777324653894,1338
1777324653876,1469
1777324653878,1645
1777324653880,1780
1777324653882,1810
1777324653884,1748
1777324653886,1629
1777324653888,1494
1777324653890,1378
1777324653892,1318
1777324653894,1363
1777324653939,1517
1777324653941,1779
1777324653943,1770
1777324653945,1884
1777324653947,1720
1777324653949,1597
1777324653951,1471
1777324653953,1385
1777324653955,1349
1777324653957,1394
1777324653940,1496
1777324653942,1626
1777324653944,1726
1777324653946,1770
1777324653948,1750
1777324653950,1646
1777324653952,1468
1777324653954,1310
1777324653956,1248
1777324653958,1307
1777324653972,1658
1777324653974,1558
1777324653976,1688
1777324653978,1793
1777324653980,1696
1777324653982,1637
1777324653984,1534
1777324653986,1413
1777324653988,1349
1777324653990,1370
1777324653972,1436
1777324653974,1541
1777324653976,1648
1777324653978,1715
1777324653980,1732
1777324653982,1674
1777324653984,1559
1777324653986,1469
1777324653988,1436
1777324653990,1480
1777324654036,1619
1777324654038,1861
1777324654040,1824
1777324654042,1945
1777324654044,1858
1777324654046,1811
1777324654048,1723
1777324654050,1640
1777324654052,1605
1777324654054,1644
1777324654036,1736
1777324654038,1822
1777324654040,1865
1777324654042,1861
1777324654044,1821
1777324654046,1745
1777324654048,1658
1777324654050,1603
1777324654052,1603
1777324654054,1686
1777324654036,2055
1777324654038,2043
1777324654040,2252
1777324654042,2429
1777324654044,2412
1777324654046,2455
1777324654048,2466
1777324654050,2495
1777324654052,2601
1777324654054,2826
1777324654067,3130
1777324654069,3398
1777324654071,3579
1777324654073,3661
1777324654075,3561
1777324654077,3310
1777324654079,2952
1777324654081,2558
1777324654083,2201
1777324654085,1962
1777324654067,1866
1777324654069,1905
1777324654071,1731
1777324654073,1750
1777324654075,1601
1777324654077,1524
1777324654079,1430
1777324654081,1370
1777324654083,1370
1777324654085,1452
1777324654125,1587
1777324654127,1727
1777324654129,1852
1777324654131,1947
1777324654133,1993
1777324654135,1990
1777324654137,1923
1777324654139,1841
1777324654141,1810
1777324654143,1858
1777324654125,2162
1777324654127,2060
1777324654129,2183
1777324654131,2268
1777324654133,2152
1777324654135,2068
1777324654137,1937
1777324654139,1819
1777324654141,1777
1777324654143,1835
1777324654152,1940
1777324654154,2042
1777324654156,2098
1777324654158,2109
1777324654160,2100
1777324654162,2059
1777324654164,1976
1777324654166,1892
1777324654168,1863
1777324654170,1909
1777324654152,2006
1777324654154,2291
1777324654156,2168
1777324654158,2162
1777324654160,2150
1777324654162,2035
1777324654164,1932
1777324654166,1839
1777324654168,1804
1777324654170,1845
1777324654206,1942
1777324654208,2039
1777324654210,2111
1777324654212,2125
1777324654214,2102
1777324654216,2031
1777324654218,1919
1777324654220,1817
1777324654222,1781
1777324654224,1830
1777324654206,2047
1777324654208,2078
1777324654210,2117
1777324654212,2206
1777324654214,2118
1777324654216,2087
1777324654218,2005
1777324654220,1927
1777324654222,1881
1777324654224,1885
1777324654206,1958
1777324654208,2065
1777324654210,2152
1777324654212,2192
1777324654214,2194
1777324654216,2145
1777324654218,2056
1777324654220,1974
1777324654222,1953
1777324654224,2026
1777324654233,2183
1777324654235,2386
1777324654237,2295
1777324654239,2260
1777324654241,2336
1777324654243,2220
1777324654245,2149
1777324654247,2078
1777324654249,2063
1777324654251,2128
1777324654233,2239
1777324654235,2341
1777324654237,2416
1777324654239,2440
1777324654241,2424
1777324654243,2383
1777324654245,2325
1777324654247,2247
1777324654249,2162
1777324654251,2124
1777324654290,2360
1777324654292,2203
1777324654294,2293
1777324654296,2390
1777324654298,2312
1777324654300,2283
1777324654302,2191
1777324654304,2097
1777324654306,2060
1777324654308,2108
1777324654290,2184
1777324654292,2251
1777324654294,2304
1777324654296,2317
1777324654298,2265
1777324654300,2156
1777324654302,2034
1777324654304,1946
1777324654306,1883
1777324654308,1876
1777324654323,1967
1777324654325,2175
1777324654327,2095
1777324654329,2145
1777324654331,2022
1777324654333,1924
1777324654335,1779
1777324654337,1656
1777324654339,1619
1777324654341,1665
1777324654323,1743
1777324654325,1808
1777324654327,1847
1777324654329,1842
1777324654331,1810
1777324654333,1744
1777324654335,1625
1777324654337,1515
1777324654339,1464
1777324654341,1504
1777324654386,1833
1777324654388,1708
1777324654390,1836
1777324654392,1946
1777324654394,1863
1777324654396,1807
1777324654398,1684
1777324654400,1555
1777324654402,1478
1777324654404,1491
1777324654386,1580
1777324654388,1680
1777324654390,1749
1777324654392,1764
1777324654394,1763
1777324654396,1724
1777324654398,1632
1777324654400,1542
1777324654402,1528
1777324654404,1579
1777324654386,1718
1777324654388,1932
1777324654390,1873
1777324654392,1961
1777324654394,1836
1777324654396,1742
1777324654398,1645
1777324654400,1577
1777324654402,1563
1777324654404,1610
1777324654417,1713
1777324654419,1805
1777324654421,1864
1777324654423,1903
1777324654425,1887
1777324654427,1824
1777324654429,1714
1777324654431,1613
1777324654433,1572
1777324654435,1638
1777324654417,1993
1777324654419,1886
1777324654421,1975
1777324654423,2025
1777324654425,1907
1777324654427,1836
1777324654429,1702
1777324654431,1565
1777324654433,1495
1777324654435,1543
1777324654480,1669
1777324654482,1783
1777324654484,1855
1777324654486,1884
1777324654488,1870
1777324654490,1811
1777324654492,1718
1777324654494,1655
1777324654496,1654
1777324654498,1737
1777324654480,1910
1777324654482,2081
1777324654484,1942
1777324654486,1942
1777324654488,1809
1777324654490,1729
1777324654492,1624
1777324654494,1560
1777324654496,1566
1777324654498,1635
1777324654512,1749
1777324654514,1838
1777324654516,1900
1777324654518,1950
1777324654520,1967
1777324654522,1919
1777324654524,1803
1777324654526,1675
1777324654528,1617
1777324654530,1655
1777324654512,1960
1777324654514,1838
1777324654516,1960
1777324654518,2050
1777324654520,1951
1777324654522,1882
1777324654524,1767
1777324654526,1659
1777324654528,1614
1777324654530,1660
1777324654548,1764
1777324654550,1864
1777324654552,1931
1777324654554,1962
1777324654556,1938
1777324654558,1854
1777324654560,1727
1777324654562,1615
1777324654564,1559
1777324654566,1594
1777324654548,1711
1777324654550,2046
1777324654552,1950
1777324654554,1971
1777324654556,1952
1777324654558,1837
1777324654560,1723
1777324654562,1620
1777324654564,1577
1777324654566,1622
1777324654548,1731
1777324654550,1818
1777324654552,1866
1777324654554,1868
1777324654556,1827
1777324654558,1761
1777324654560,1669
1777324654562,1586
1777324654564,1550
1777324654566,1601
1777324654610,1912
1777324654612,1776
1777324654614,1865
1777324654616,1836
1777324654618,1913
1777324654620,1758
1777324654622,1672
1777324654624,1601
1777324654626,1566
1777324654628,1568
1777324654610,1620
1777324654612,1698
1777324654614,1745
1777324654616,1752
1777324654618,1727
1777324654620,1668
1777324654622,1568
1777324654624,1504
1777324654626,1508
1777324654628,1582
1777324654643,1747
1777324654645,1956
1777324654647,1877
1777324654649,1938
1777324654651,1830
1777324654653,1784
1777324654655,1696
1777324654657,1620
1777324654659,1598
1777324654661,1633
1777324654643,1715
1777324654645,1773
1777324654647,1820
1777324654649,1837
1777324654651,1821
1777324654653,1758
1777324654655,1638
1777324654657,1523
1777324654659,1479
1777324654661,1518
1777324654706,1853
1777324654708,1746
1777324654710,1891
1777324654712,2026
1777324654714,1930
1777324654716,1850
1777324654718,1704
1777324654720,1570
1777324654722,1510
1777324654724,1548
1777324654706,1661
1777324654708,1771
1777324654710,1843
1777324654712,1871
1777324654714,1852
1777324654716,1793
1777324654718,1697
1777324654720,1616
1777324654722,1595
1777324654724,1642
1777324654739,1794
1777324654741,2046
1777324654743,2021
1777324654745,2114
1777324654747,1966
1777324654749,1861
1777324654751,1726
1777324654753,1629
1777324654755,1613
1777324654757,1671
1777324654739,1775
1777324654741,1863
1777324654743,1933
1777324654745,1971
1777324654747,1971
1777324654749,1899
1777324654751,1776
1777324654753,1687
1777324654755,1650
1777324654757,1695
1777324654739,2013
1777324654741,1910
1777324654743,2040
1777324654745,2130
1777324654747,2006
1777324654749,1884
1777324654751,1720
1777324654753,1612
1777324654755,1587
1777324654757,1648
1777324654773,1776
1777324654775,1908
1777324654777,1973
1777324654779,1987
1777324654781,1942
1777324654783,1846
1777324654785,1723
1777324654787,1614
1777324654789,1586
1777324654791,1654
1777324654773,1810
1777324654775,2036
1777324654777,1963
1777324654779,2048
1777324654781,1930
1777324654783,1881
1777324654785,1788
1777324654787,1694
1777324654789,1657
1777324654791,1727
1777324654836,1850
1777324654838,1944
1777324654840,1977
1777324654842,1962
1777324654844,1918
1777324654846,1853
1777324654848,1769
1777324654850,1693
1777324654852,1678
1777324654854,1740
1777324654836,2057
1777324654838,1949
1777324654840,2060
1777324654842,2147
1777324654844,2048
1777324654846,1975
1777324654848,1853
1777324654850,1741
1777324654852,1701
1777324654854,1744
1777324654867,1844
1777324654869,1946
1777324654871,2025
1777324654873,2078
1777324654875,2073
1777324654877,1976
1777324654879,1833
1777324654881,1701
1777324654883,1649
1777324654885,1682
1777324654867,1811
1777324654869,2022
1777324654871,1959
1777324654873,2051
1777324654875,1983
1777324654877,1940
1777324654879,1868
1777324654881,1804
1777324654883,1792
1777324654885,1852
1777324654931,1943
1777324654933,2030
1777324654935,2090
1777324654937,2107
1777324654939,2091
1777324654941,2030
1777324654943,1936
1777324654945,1853
1777324654947,1820
1777324654949,1850
1777324654931,2112
1777324654933,2070
1777324654935,2112
1777324654937,2170
1777324654939,2052
1777324654941,1983
1777324654943,1855
1777324654945,1728
1777324654947,1687
1777324654949,1759
1777324654931,1890
1777324654933,2040
1777324654935,2149
1777324654937,2178
1777324654939,2112
1777324654941,1991
1777324654943,1849
1777324654945,1724
1777324654947,1658
1777324654949,1678
1777324654965,1802
1777324654967,2031
1777324654969,2011
1777324654971,2060
1777324654973,2173
1777324654975,1996
1777324654977,1859
1777324654979,1742
1777324654981,1700
1777324654983,1725
1777324654998,1813
1777324655000,1929
1777324655002,2006
1777324655004,2046
1777324655006,2040
1777324655008,1987
1777324655010,1883
1777324655012,1784
1777324655014,1760
1777324655016,1817
1777324654998,2115
1777324655000,1986
1777324655002,2097
1777324655004,2184
1777324655006,2094
1777324655008,2033
1777324655010,1919
1777324655012,1800
1777324655014,1749
1777324655016,1792
1777324654998,1910
1777324655000,2040
1777324655002,2130
1777324655004,2154
1777324655006,2098
1777324655008,2001
1777324655010,1886
1777324655012,1783
1777324655014,1758
1777324655016,1841
1777324655062,2042
1777324655064,2344
1777324655066,2380
1777324655068,2557
1777324655070,2570
1777324655072,2657
1777324655074,2729
1777324655076,2801
1777324655078,2926
1777324655080,3111
1777324655062,3358
1777324655064,3617
1777324655066,3815
1777324655068,3861
1777324655070,3723
1777324655072,3427
1777324655074,3034
1777324655076,2618
1777324655078,2236
1777324655080,1937
1777324655124,1977
1777324655126,1673
1777324655128,1675
1777324655130,1731
1777324655132,1614
1777324655134,1590
1777324655136,1537
1777324655138,1480
1777324655140,1468
1777324655142,1526
1777324655124,1662
1777324655126,1818
1777324655128,1941
1777324655130,2022
1777324655132,2071
1777324655134,2070
1777324655136,2010
1777324655138,1940
1777324655140,1936
1777324655142,2024
1777324655124,2204
1777324655126,2432
1777324655128,2375
1777324655130,2431
1777324655132,2279
1777324655134,2179
1777324655136,2060
1777324655138,1954
1777324655140,1919
1777324655142,1980
1777324655154,2102
1777324655156,2228
1777324655158,2309
1777324655160,2356
1777324655162,2345
1777324655164,2283
1777324655166,2184
1777324655168,2090
1777324655170,2071
1777324655172,2119
1777324655154,2350
1777324655156,2324
1777324655158,2352
1777324655160,2418
1777324655162,2328
1777324655164,2291
1777324655166,2214
1777324655168,2137
1777324655170,2121
1777324655172,2167
1777324655183,2244
1777324655185,2335
1777324655187,2419
1777324655189,2466
1777324655191,2453
1777324655193,2401
1777324655195,2320
1777324655197,2228
1777324655199,2173
1777324655201,2213
1777324655183,2355
1777324655185,2592
1777324655187,2543
1777324655189,2632
1777324655191,2524
1777324655193,2470
1777324655195,2380
1777324655197,2304
1777324655199,2314
1777324655201,2384
1777324655242,2474
1777324655244,2565
1777324655246,2620
1777324655248,2634
1777324655250,2622
1777324655252,2557
1777324655254,2468
1777324655256,2392
1777324655258,2368
1777324655260,2410
1777324655242,2709
1777324655244,2618
1777324655246,2748
1777324655248,2848
1777324655250,2744
1777324655252,2695
1777324655254,2633
1777324655256,2572
1777324655258,2524
1777324655260,2517
1777324655271,2579
1777324655273,2684
1777324655275,2766
1777324655277,2819
1777324655279,2844
1777324655281,2830
1777324655283,2763
1777324655285,2649
1777324655287,2595
1777324655289,2632
1777324655271,2726
1777324655273,3037
1777324655275,2931
1777324655277,2973
1777324655279,2998
1777324655281,2868
1777324655283,2750
1777324655285,2651
1777324655287,2621
1777324655289,2638
1777324655271,2690
1777324655273,2747
1777324655275,2787
1777324655277,2804
1777324655279,2787
1777324655281,2711
1777324655283,2578
1777324655285,2462
1777324655287,2407
1777324655289,2425
1777324655329,2692
1777324655331,2564
1777324655333,2647
1777324655335,2617
1777324655337,2678
1777324655339,2506
1777324655341,2378
1777324655343,2242
1777324655345,2167
1777324655347,2188
1777324655329,2265
1777324655331,2377
1777324655333,2442
1777324655335,2443
1777324655337,2393
1777324655339,2304
1777324655341,2195
1777324655343,2103
1777324655345,2079
1777324655347,2126
1777324655358,2272
1777324655360,2484
1777324655362,2429
1777324655364,2508
1777324655366,2399
1777324655368,2325
1777324655370,2191
1777324655372,2052
1777324655374,1981
1777324655376,2013
1777324655358,2119
1777324655360,2242
1777324655362,2317
1777324655364,2335
1777324655366,2302
1777324655368,2223
1777324655370,2118
1777324655372,2023
1777324655374,1990
1777324655376,2047
1777324655417,2356
1777324655419,2244
1777324655421,2353
1777324655423,2437
1777324655425,2325
1777324655427,2253
1777324655429,2151
1777324655431,2064
1777324655433,2053
1777324655435,2092
1777324655417,2176
1777324655419,2263
1777324655421,2334
1777324655423,2364
1777324655425,2355
1777324655427,2288
1777324655429,2164
1777324655431,2025
1777324655433,1963
1777324655435,1997
1777324655509,2129
1777324655511,2354
1777324655513,2307
1777324655515,2401
1777324655517,2276
1777324655519,2200
1777324655521,2101
1777324655523,2021
1777324655525,2014
1777324655527,2071
1777324655509,2147
1777324655511,2218
1777324655513,2276
1777324655515,2311
1777324655517,2304
1777324655519,2226
1777324655521,2113
1777324655523,2001
1777324655525,1958
1777324655527,1999
1777324655509,2319
1777324655511,2219
1777324655513,2332
1777324655515,2416
1777324655517,2322
1777324655519,2262
1777324655521,2166
1777324655523,2081
1777324655525,2073
1777324655527,2125
1777324655509,2203
1777324655511,2303
1777324655513,2363
1777324655515,2378
1777324655517,2368
1777324655519,2329
1777324655521,2261
1777324655523,2180
1777324655525,2144
1777324655527,2182
1777324655509,2318
1777324655511,2549
1777324655513,2516
1777324655515,2602
1777324655517,2452
1777324655519,2350
1777324655521,2237
1777324655523,2171
1777324655525,2169
1777324655527,2237
1777324655541,2344
1777324655543,2427
1777324655545,2443
1777324655547,2401
1777324655549,2346
1777324655551,2286
1777324655553,2202
1777324655555,2125
1777324655557,2104
1777324655559,2164
1777324655541,2477
1777324655543,2386
1777324655545,2509
1777324655547,2612
1777324655549,2508
1777324655551,2435
1777324655553,2322
1777324655555,2220
1777324655557,2188
1777324655559,2243
1777324655605,2344
1777324655607,2449
1777324655609,2507
1777324655611,2518
1777324655613,2482
1777324655615,2378
1777324655617,2237
1777324655619,2162
1777324655621,2171
1777324655623,2250
1777324655605,2400
1777324655607,2601
1777324655609,2535
1777324655611,2607
1777324655613,2485
1777324655615,2423
1777324655617,2332
1777324655619,2237
1777324655621,2195
1777324655623,2242
1777324655636,2351
1777324655638,2463
1777324655640,2508
1777324655642,2503
1777324655644,2482
1777324655646,2417
1777324655648,2306
1777324655650,2212
1777324655652,2176
1777324655654,2227
1777324655636,2497
1777324655638,2430
1777324655640,2484
1777324655642,2546
1777324655644,2450
1777324655646,2377
1777324655648,2266
1777324655650,2198
1777324655652,2191
1777324655654,2259
1777324655636,2353
1777324655638,2422
1777324655640,2443
1777324655642,2432
1777324655644,2388
1777324655646,2309
1777324655648,2210
1777324655650,2149
1777324655652,2157
1777324655654,2233
1777324655699,2382
1777324655701,2599
1777324655703,2533
1777324655705,2515
1777324655707,2566
1777324655709,2389
1777324655711,2270
1777324655713,2186
1777324655715,2179
1777324655717,2234
1777324655699,2321
1777324655701,2424
1777324655703,2509
1777324655705,2543
1777324655707,2505
1777324655709,2406
1777324655711,2295
1777324655713,2202
1777324655715,2174
1777324655717,2246
1777324655731,2578
1777324655733,2499
1777324655735,2597
1777324655737,2657
1777324655739,2508
1777324655741,2421
1777324655743,2310
1777324655745,2226
1777324655747,2210
1777324655749,2276
1777324655731,2374
1777324655733,2463
1777324655735,2532
1777324655737,2568
1777324655739,2547
1777324655741,2480
1777324655743,2380
1777324655745,2266
1777324655747,2191
1777324655749,2203
1777324655763,2343
1777324655765,2565
1777324655767,2492
1777324655769,2576
1777324655771,2466
1777324655773,2397
1777324655775,2300
1777324655777,2220
1777324655779,2200
1777324655781,2224
1777324655763,2286
1777324655765,2355
1777324655767,2410
1777324655769,2436
1777324655771,2427
1777324655773,2377
1777324655775,2291
1777324655777,2212
1777324655779,2180
1777324655781,2217
1777324655825,2507
1777324655827,2390
1777324655829,2473
1777324655831,2524
1777324655833,2393
1777324655835,2313
1777324655837,2239
1777324655839,2186
1777324655841,2165
1777324655843,2201
1777324655825,2308
1777324655827,2408
1777324655829,2472
1777324655831,2504
1777324655833,2505
1777324655835,2444
1777324655837,2348
1777324655839,2268
1777324655841,2231
1777324655843,2244
1777324655825,2362
1777324655827,2578
1777324655829,2547
1777324655831,2648
1777324655833,2548
1777324655835,2458
1777324655837,2309
1777324655839,2175
1777324655841,2118
1777324655843,2166
1777324655855,2256
1777324655857,2331
1777324655859,2380
1777324655861,2444
1777324655863,2483
1777324655865,2453
1777324655867,2349
1777324655869,2236
1777324655871,2174
1777324655873,2195
1777324655855,2476
1777324655857,2349
1777324655859,2450
1777324655861,2513
1777324655863,2409
1777324655865,2349
1777324655867,2246
1777324655869,2167
1777324655871,2145
1777324655873,2202
1777324655919,2304
1777324655921,2397
1777324655923,2466
1777324655925,2496
1777324655927,2467
1777324655929,2390
1777324655931,2293
1777324655933,2240
1777324655935,2230
1777324655937,2261
1777324655919,2326
1777324655921,2469
1777324655923,2358
1777324655925,2432
1777324655927,2334
1777324655929,2268
1777324655931,2201
1777324655933,2172
1777324655935,2195
1777324655937,2246
1777324655950,2294
1777324655952,2332
1777324655954,2360
1777324655956,2361
1777324655958,2333
1777324655960,2247
1777324655962,2136
1777324655964,2057
1777324655966,2046
1777324655968,2110
1777324655950,2431
1777324655952,2340
1777324655954,2481
1777324655956,2601
1777324655958,2569
1777324655960,2592
1777324655962,2575
1777324655964,2589
1777324655966,2694
1777324655968,2918
1777324655988,3200
1777324655990,3474
1777324655992,3678
1777324655994,3777
1777324655996,3759
1777324655998,3577
1777324656000,3278
1777324656002,2938
1777324656004,2620
1777324656006,2339
1777324655988,2093
1777324655990,2106
1777324655992,1783
1777324655994,1685
1777324655996,1615
1777324655998,1484
1777324656000,1382
1777324656002,1313
1777324656004,1327
1777324656006,1437
1777324655988,1585
1777324655990,1713
1777324655992,1797
1777324655994,1843
1777324655996,1875
1777324655998,1862
1777324656000,1819
1777324656002,1796
1777324656004,1811
1777324656006,1899
1777324656046,2218
1777324656048,2095
1777324656050,2185
1777324656052,2181
1777324656054,2265
1777324656056,2109
1777324656058,2011
1777324656060,1926
1777324656062,1895
1777324656064,1920
1777324656046,2002
1777324656048,2129
1777324656050,2216
1777324656052,2231
1777324656054,2200
1777324656056,2148
1777324656058,2060
1777324656060,1960
1777324656062,1898
1777324656064,1914
1777324656078,2050
1777324656080,2266
1777324656082,2218
1777324656084,2345
1777324656086,2304
1777324656088,2216
1777324656090,2037
1777324656092,1903
1777324656094,1835
1777324656096,1873
1777324656078,1982
1777324656080,2098
1777324656082,2187
1777324656084,2220
1777324656086,2191
1777324656088,2118
1777324656090,2004
1777324656092,1910
1777324656094,1877
1777324656096,1926
1777324656143,2235
1777324656145,2124
1777324656147,2243
1777324656149,2320
1777324656151,2186
1777324656153,2089
1777324656155,1976
1777324656157,1888
1777324656159,1870
1777324656161,1925
1777324656143,2026
1777324656145,2131
1777324656147,2198
1777324656149,2207
1777324656151,2168
1777324656153,2087
1777324656155,1980
1777324656157,1900
1777324656159,1882
1777324656161,1940
1777324656203,2048
1777324656205,2364
1777324656207,2284
1777324656209,2306
1777324656211,2315
1777324656213,2186
1777324656215,2091
1777324656217,2010
1777324656219,1970
1777324656221,2020
1777324656203,2135
1777324656205,2273
1777324656207,2394
1777324656209,2413
1777324656211,2347
1777324656213,2245
1777324656215,2129
1777324656217,2040
1777324656219,2005
1777324656221,2048
1777324656203,2357
1777324656205,2252
1777324656207,2375
1777324656209,2456
1777324656211,2366
1777324656213,2319
1777324656215,2234
1777324656217,2136
1777324656219,2091
1777324656221,2112
1777324656256,2188
1777324656258,2277
1777324656260,2315
1777324656262,2295
1777324656264,2222
1777324656266,2121
1777324656268,1992
1777324656270,1881
1777324656272,1828
1777324656274,1850
1777324656256,1961
1777324656258,2144
1777324656260,2057
1777324656262,2114
1777324656264,1966
1777324656266,1859
1777324656268,1729
1777324656270,1626
1777324656272,1576
1777324656274,1589
1777324656281,1654
1777324656283,1734
1777324656285,1800
1777324656287,1814
1777324656289,1765
1777324656291,1661
1777324656293,1519
1777324656295,1398
1777324656297,1332
1777324656299,1358
1777324656281,1678
1777324656283,1551
1777324656285,1657
1777324656287,1688
1777324656289,1555
1777324656291,1457
1777324656293,1347
1777324656295,1261
1777324656297,1218
1777324656299,1257
1777324656313,1379
1777324656315,1519
1777324656317,1614
1777324656319,1655
1777324656321,1652
1777324656323,1580
1777324656325,1429
1777324656327,1301
1777324656329,1270
1777324656331,1327
1777324656313,1474
1777324656315,1702
1777324656317,1650
1777324656319,1740
1777324656321,1625
1777324656323,1542
1777324656325,1421
1777324656327,1320
1777324656329,1285
1777324656331,1330
1777324656348,1429
1777324656350,1528
1777324656352,1604
1777324656354,1627
1777324656356,1596
1777324656358,1505
1777324656360,1385
1777324656362,1290
1777324656364,1265
1777324656366,1310
1777324656348,1614
1777324656350,1539
1777324656352,1658
1777324656354,1755
1777324656356,1647
1777324656358,1579
1777324656360,1458
1777324656362,1347
1777324656364,1298
1777324656366,1337
1777324656348,1432
1777324656350,1532
1777324656352,1612
1777324656354,1662
1777324656356,1667
1777324656358,1607
1777324656360,1498
1777324656362,1401
1777324656364,1364
1777324656366,1420
1777324656409,1563
1777324656411,1785
1777324656413,1730
1777324656415,1708
1777324656417,1804
1777324656419,1639
1777324656421,1543
1777324656423,1462
1777324656425,1448
1777324656427,1497
1777324656409,1598
1777324656411,1689
1777324656413,1746
1777324656415,1762
1777324656417,1724
1777324656419,1632
1777324656421,1510
1777324656423,1424
1777324656425,1402
1777324656427,1448
1777324656441,1759
1777324656443,1643
1777324656445,1765
1777324656447,1814
1777324656449,1668
1777324656451,1614
1777324656453,1569
1777324656455,1551
1777324656457,1564
1777324656459,1623
1777324656441,1715
1777324656443,1799
1777324656445,1843
1777324656447,1841
1777324656449,1794
1777324656451,1723
1777324656453,1629
1777324656455,1510
1777324656457,1439
1777324656459,1448
1777324656505,1570
1777324656507,1786
1777324656509,1757
1777324656511,1844
1777324656513,1754
1777324656515,1662
1777324656517,1542
1777324656519,1448
1777324656521,1439
1777324656523,1477
1777324656505,1550
1777324656507,1634
1777324656509,1709
1777324656511,1754
1777324656513,1754
1777324656515,1706
1777324656517,1634
1777324656519,1567
1777324656521,1533
1777324656523,1557
1777324656537,1849
1777324656539,1700
1777324656541,1787
1777324656543,1839
1777324656545,1735
1777324656547,1698
1777324656549,1616
1777324656551,1533
1777324656553,1503
1777324656555,1522
1777324656537,1586
1777324656539,1654
1777324656541,1695
1777324656543,1704
1777324656545,1688
1777324656547,1644
1777324656549,1570
1777324656551,1520
1777324656553,1539
1777324656555,1598
1777324656537,1704
1777324656539,1878
1777324656541,1794
1777324656543,1849
1777324656545,1724
1777324656547,1637
1777324656549,1533
1777324656551,1468
1777324656553,1467
1777324656555,1530
1777324656573,1636
1777324656575,1728
1777324656577,1767
1777324656579,1766
1777324656581,1717
1777324656583,1626
1777324656585,1515
1777324656587,1438
1777324656589,1422
1777324656591,1472
1777324656573,1793
1777324656575,1683
1777324656577,1815
1777324656579,1876
1777324656581,1740
1777324656583,1634
1777324656585,1510
1777324656587,1444
1777324656589,1452
1777324656591,1505
1777324656634,1601
1777324656636,1692
1777324656638,1745
1777324656640,1759
1777324656642,1709
1777324656644,1614
1777324656646,1503
1777324656648,1423
1777324656650,1399
1777324656652,1449
1777324656634,1613
1777324656636,1857
1777324656638,1800
1777324656640,1853
1777324656642,1734
1777324656644,1652
1777324656646,1535
1777324656648,1442
1777324656650,1414
1777324656652,1455
1777324656665,1538
1777324656667,1640
1777324656669,1728
1777324656671,1769
1777324656673,1756
1777324656675,1706
1777324656677,1612
1777324656679,1525
1777324656681,1517
1777324656683,1553
1777324656665,1841
1777324656667,1692
1777324656669,1797
1777324656671,1884
1777324656673,1809
1777324656675,1778
1777324656677,1690
1777324656679,1596
1777324656681,1529
1777324656683,1515
1777324656731,1579
1777324656733,1661
1777324656735,1731
1777324656737,1779
1777324656739,1770
1777324656741,1703
1777324656743,1610
1777324656745,1532
1777324656747,1488
1777324656749,1491
1777324656731,1543
1777324656733,1845
1777324656735,1731
1777324656737,1725
1777324656739,1765
1777324656741,1607
1777324656743,1506
1777324656745,1467
1777324656747,1521
1777324656749,1621
1777324656731,1722
1777324656733,1806
1777324656735,1867
1777324656737,1873
1777324656739,1783
1777324656741,1651
1777324656743,1506
1777324656745,1403
1777324656747,1372
1777324656749,1420
1777324656796,1749
1777324656798,1645
1777324656800,1754
1777324656802,1729
1777324656804,1813
1777324656806,1651
1777324656808,1552
1777324656810,1478
1777324656812,1472
1777324656814,1522
1777324656796,1601
1777324656798,1663
1777324656800,1701
1777324656802,1694
1777324656804,1628
1777324656806,1517
1777324656808,1393
1777324656810,1310
1777324656812,1310
1777324656814,1371
1777324656825,1511
1777324656827,1737
1777324656829,1695
1777324656831,1755
1777324656833,1617
1777324656835,1513
1777324656837,1396
1777324656839,1332
1777324656841,1331
1777324656843,1386
1777324656825,1488
1777324656827,1577
1777324656829,1621
1777324656831,1626
1777324656833,1599
1777324656835,1537
1777324656837,1445
1777324656839,1349
1777324656841,1293
1777324656843,1311
1777324656856,1616
1777324656858,1476
1777324656860,1591
1777324656862,1676
1777324656864,1576
1777324656866,1561
1777324656868,1504
1777324656870,1421
1777324656872,1361
1777324656874,1346
1777324656856,1390
1777324656858,1460
1777324656860,1503
1777324656862,1518
1777324656864,1492
1777324656866,1432
1777324656868,1353
1777324656870,1312
1777324656872,1353
1777324656874,1474
1777324656916,1703
1777324656918,2015
1777324656920,2061
1777324656922,2243
1777324656924,2306
1777324656926,2377
1777324656928,2438
1777324656930,2522
1777324656932,2669
1777324656934,2854
1777324656916,3021
1777324656918,3081
1777324656920,2992
1777324656922,2779
1777324656924,2482
1777324656926,2113
1777324656928,1691
1777324656930,1318
1777324656932,1090
1777324656934,997
1777324656916,1218
1777324656918,1049
1777324656920,1192
1777324656922,1334
1777324656924,1295
1777324656926,1280
1777324656928,1189
1777324656930,1089
1777324656932,1065
1777324656934,1131
1777324656971,1261
1777324656973,1409
1777324656975,1519
1777324656977,1615
1777324656979,1659
1777324656981,1641
1777324656983,1569
1777324656985,1502
1777324656987,1487
1777324656989,1549
1777324656971,1711
1777324656973,1959
1777324656975,1920
1777324656977,1994
1777324656979,1869
1777324656981,1800
1777324656983,1719
1777324656985,1657
1777324656987,1658
1777324656989,1718
1777324656998,1801
1777324657000,1866
1777324657002,1899
1777324657004,1910
1777324657006,1892
1777324657008,1835
1777324657010,1751
1777324657012,1692
1777324657014,1686
1777324657016,1723
1777324656998,2003
1777324657000,1861
1777324657002,1977
1777324657004,2054
1777324657006,1965
1777324657008,1920
1777324657010,1844
1777324657012,1760
1777324657014,1737
1777324657016,1795
1777324657030,1879
1777324657032,1937
1777324657034,1967
1777324657036,1973
1777324657038,1947
1777324657040,1867
1777324657042,1764
1777324657044,1693
1777324657046,1701
1777324657048,1754
1777324657030,1880
1777324657032,2089
1777324657034,2023
1777324657036,2103
1777324657038,2011
1777324657040,1969
1777324657042,1906
1777324657044,1858
1777324657046,1862
1777324657048,1919
1777324657093,2004
1777324657095,2089
1777324657097,2159
1777324657099,2193
1777324657101,2176
1777324657103,2118
1777324657105,2019
1777324657107,1922
1777324657109,1913
1777324657111,2000
1777324657093,2320
1777324657095,2275
1777324657097,2371
1777324657099,2443
1777324657101,2297
1777324657103,2181
1777324657105,2059
1777324657107,1998
1777324657109,2038
1777324657111,2125
1777324657093,2216
1777324657095,2312
1777324657097,2400
1777324657099,2437
1777324657101,2407
1777324657103,2317
1777324657105,2211
1777324657107,2135
1777324657109,2117
1777324657111,2164
1777324657124,2285
1777324657126,2482
1777324657128,2423
1777324657130,2405
1777324657132,2493
1777324657134,2308
1777324657136,2184
1777324657138,2076
1777324657140,2022
1777324657142,2051
1777324657125,2139
1777324657127,2237
1777324657129,2306
1777324657131,2327
1777324657133,2293
1777324657135,2184
1777324657137,2021
1777324657139,1880
1777324657141,1821
1777324657143,1857
1777324657158,2111
1777324657160,2050
1777324657162,2098
1777324657164,2121
1777324657166,1985
1777324657168,1879
1777324657170,1747
1777324657172,1677
1777324657174,1694
1777324657176,1751
1777324657158,1823
1777324657160,1891
1777324657162,1939
1777324657164,1954
1777324657166,1928
1777324657168,1837
1777324657170,1723
1777324657172,1626
1777324657174,1585
1777324657176,1612
1777324657220,1720
1777324657222,1882
1777324657224,1804
1777324657226,1857
1777324657228,1737
1777324657230,1642
1777324657232,1531
1777324657234,1467
1777324657236,1482
1777324657238,1541
1777324657220,1639
1777324657222,1736
1777324657224,1831
1777324657226,1895
1777324657228,1879
1777324657230,1763
1777324657232,1601
1777324657234,1479
1777324657236,1440
1777324657238,1500
1777324657253,1847
1777324657255,1772
1777324657257,1912
1777324657259,1978
1777324657261,1843
1777324657263,1760
1777324657265,1680
1777324657267,1614
1777324657269,1588
1777324657271,1615
1777324657253,1682
1777324657255,1754
1777324657257,1801
1777324657259,1824
1777324657261,1819
1777324657263,1757
1777324657265,1656
1777324657267,1585
1777324657269,1586
1777324657271,1666
1777324657253,1819
1777324657255,2019
1777324657257,1968
1777324657259,2044
1777324657261,1930
1777324657263,1872
1777324657265,1777
1777324657267,1696
1777324657269,1680
1777324657271,1736
1777324657318,1820
1777324657320,1901
1777324657322,1963
1777324657324,2003
1777324657326,1979
1777324657328,1902
1777324657330,1788
1777324657332,1700
1777324657334,1690
1777324657336,1759
1777324657318,2058
1777324657320,1937
1777324657322,2046
1777324657324,2116
1777324657326,2001
1777324657328,1915
1777324657330,1800
1777324657332,1714
1777324657334,1693
1777324657336,1748
1777324657351,1844
1777324657353,1945
1777324657355,2019
1777324657357,2088
1777324657359,2118
1777324657361,2051
1777324657363,1909
1777324657365,1783
1777324657367,1739
1777324657369,1778
1777324657351,1915
1777324657353,2098
1777324657355,2014
1777324657357,2083
1777324657359,1949
1777324657361,1884
1777324657363,1811
1777324657365,1765
1777324657367,1764
1777324657369,1780
1777324657384,1806
1777324657386,1862
1777324657388,1922
1777324657390,1951
1777324657392,1952
1777324657394,1883
1777324657396,1783
1777324657398,1701
1777324657400,1680
1777324657402,1719
1777324657384,2010
1777324657386,1865
1777324657388,1931
1777324657390,1998
1777324657392,1912
1777324657394,1878
1777324657396,1812
1777324657398,1752
1777324657400,1750
1777324657402,1797
1777324657446,1860
1777324657448,1926
1777324657450,1975
1777324657452,1993
1777324657454,1963
1777324657456,1851
1777324657458,1722
1777324657460,1637
1777324657462,1626
1777324657464,1680
1777324657446,1767
1777324657448,2067
1777324657450,1972
1777324657452,1987
1777324657454,1963
1777324657456,1823
1777324657458,1708
1777324657460,1615
1777324657462,1589
1777324657464,1641
1777324657446,1736
1777324657448,1828
1777324657450,1884
1777324657452,1888
1777324657454,1879
1777324657456,1843
1777324657458,1748
1777324657460,1604
1777324657462,1503
1777324657464,1514
1777324657477,1817
1777324657479,1703
1777324657481,1821
1777324657483,1817
1777324657485,1908
1777324657487,1739
1777324657489,1667
1777324657491,1636
1777324657493,1640
1777324657495,1698
1777324657477,1784
1777324657479,1862
1777324657481,1894
1777324657483,1892
1777324657485,1863
1777324657487,1781
1777324657489,1694
1777324657491,1644
1777324657493,1655
1777324657495,1725
1777324657542,1871
1777324657544,2057
1777324657546,1973
1777324657548,2007
1777324657550,1879
1777324657552,1793
1777324657554,1678
1777324657556,1578
1777324657558,1568
1777324657560,1664
1777324657542,1801
1777324657544,1928
1777324657546,2022
1777324657548,2067
1777324657550,2059
1777324657552,1934
1777324657554,1760
1777324657556,1631
1777324657558,1596
1777324657560,1665
1777324657574,1995
1777324657576,1924
1777324657578,2033
1777324657580,2081
1777324657582,1953
1777324657584,1863
1777324657586,1757
1777324657588,1681
1777324657590,1686
1777324657592,1751
1777324657574,1841
1777324657576,1928
1777324657578,2000
1777324657580,2031
1777324657582,2025
1777324657584,1974
1777324657586,1894
1777324657588,1824
1777324657590,1795
1777324657592,1827
1777324657608,1933
1777324657610,2113
1777324657612,2057
1777324657614,2138
1777324657616,2025
1777324657618,1945
1777324657620,1850
1777324657622,1771
1777324657624,1754
1777324657626,1830
1777324657608,1952
1777324657610,2087
1777324657612,2156
1777324657614,2144
1777324657616,2077
1777324657618,1967
1777324657620,1848
1777324657622,1762
1777324657624,1730
1777324657626,1781
1777324657608,2086
1777324657610,1979
1777324657612,2097
1777324657614,2172
1777324657616,2054
1777324657618,1968
1777324657620,1857
1777324657622,1774
1777324657624,1773
1777324657626,1856
1777324657669,1995
1777324657671,2125
1777324657673,2172
1777324657675,2156
1777324657677,2102
1777324657679,1984
1777324657681,1874
1777324657683,1799
1777324657685,1780
1777324657687,1834
1777324657669,1994
1777324657671,2190
1777324657673,2141
1777324657675,2188
1777324657677,2082
1777324657679,1992
1777324657681,1870
1777324657683,1810
1777324657685,1846
1777324657687,1932
1777324657702,2023
1777324657704,2107
1777324657706,2148
1777324657708,2143
1777324657710,2104
1777324657712,2017
1777324657714,1899
1777324657716,1814
1777324657718,1801
1777324657720,1874
1777324657702,2195
1777324657704,2120
1777324657706,2265
1777324657708,2371
1777324657710,2243
1777324657712,2128
1777324657714,1989
1777324657716,1896
1777324657718,1891
1777324657720,1974
1777324657765,2092
1777324657767,2207
1777324657769,2294
1777324657771,2328
1777324657773,2297
1777324657775,2200
1777324657777,2075
1777324657779,1979
1777324657781,1959
1777324657783,2016
1777324657765,2159
1777324657767,2351
1777324657769,2277
1777324657771,2331
1777324657773,2181
1777324657775,2088
1777324657777,1983
1777324657779,1899
1777324657781,1879
1777324657783,1947
1777324657796,2091
1777324657798,2224
1777324657800,2303
1777324657802,2308
1777324657804,2253
1777324657806,2125
1777324657808,1950
1777324657810,1812
1777324657812,1748
1777324657814,1782
1777324657796,2083
1777324657798,2003
1777324657800,2105
1777324657802,2189
1777324657804,2100
1777324657806,2041
1777324657808,1936
1777324657810,1839
1777324657812,1801
1777324657814,1838
1777324657796,1923
1777324657798,2015
1777324657800,2080
1777324657802,2113
1777324657804,2092
1777324657806,2013
1777324657808,1909
1777324657810,1832
1777324657812,1819
1777324657814,1878
1777324657833,2020
1777324657835,2232
1777324657837,2187
1777324657839,2117
1777324657841,2151
1777324657843,1948
1777324657845,1860
1777324657847,1815
1777324657849,1812
1777324657851,1860
1777324657833,1937
1777324657835,2018
1777324657837,2088
1777324657839,2096
1777324657841,2042
1777324657843,1946
1777324657845,1827
1777324657847,1736
1777324657849,1738
1777324657851,1834
1777324657891,2207
1777324657893,2174
1777324657895,2387
1777324657897,2589
1777324657899,2653
1777324657901,2754
1777324657903,2834
1777324657905,2930
1777324657907,3073
1777324657909,3211
1777324657891,3341
1777324657893,3457
1777324657895,3512
1777324657897,3438
1777324657899,3242
1777324657901,2940
1777324657903,2581
1777324657905,2219
1777324657907,1919
1777324657909,1718
1777324657923,1660
1777324657925,1686
1777324657927,1517
1777324657929,1522
1777324657931,1404
1777324657933,1360
1777324657935,1311
1777324657937,1290
1777324657939,1318
1777324657941,1410
1777324657924,1564
1777324657926,1711
1777324657928,1830
1777324657930,1905
1777324657932,1909
1777324657934,1839
1777324657936,1720
1777324657938,1640
1777324657940,1633
1777324657942,1719
1777324657988,2073
1777324657990,1986
1777324657992,2094
1777324657994,2142
1777324657996,2001
1777324657998,1888
1777324658000,1755
1777324658002,1684
1777324658004,1692
1777324658006,1765
1777324657988,1866
1777324657990,1941
1777324657992,2025
1777324657994,2105
1777324657996,2155
1777324657998,2140
1777324658000,2063
1777324658002,1974
1777324658004,1940
1777324658006,1968
1777324657988,2076
1777324657990,2244
1777324657992,2203
1777324657994,2274
1777324657996,2155
1777324657998,2077
1777324658000,1964
1777324658002,1880
1777324658004,1885
1777324658006,1991
1777324658019,2131
1777324658021,2204
1777324658023,2225
1777324658025,2231
1777324658027,2207
1777324658029,2149
1777324658031,2053
1777324658033,1975
1777324658035,1968
1777324658037,2033
1777324658019,2335
1777324658021,2214
1777324658023,2295
1777324658025,2342
1777324658027,2243
1777324658029,2178
1777324658031,2074
1777324658033,2008
1777324658035,2009
1777324658037,2073
1777324658058,2176
1777324658060,2263
1777324658062,2312
1777324658064,2336
1777324658066,2335
1777324658068,2281
1777324658070,2188
1777324658072,2133
1777324658074,2147
1777324658076,2215
1777324658058,2348
1777324658060,2519
1777324658062,2447
1777324658064,2496
1777324658066,2390
1777324658068,2347
1777324658070,2309
1777324658072,2286
1777324658074,2290
1777324658076,2355
1777324658107,2456
1777324658109,2520
1777324658111,2551
1777324658113,2556
1777324658115,2544
1777324658117,2496
1777324658119,2433
1777324658121,2377
1777324658123,2346
1777324658125,2382
1777324658107,2672
1777324658109,2574
1777324658111,2656
1777324658113,2684
1777324658115,2552
1777324658117,2455
1777324658119,2330
1777324658121,2233
1777324658123,2229
1777324658125,2308
1777324658156,2386
1777324658158,2431
1777324658160,2448
1777324658162,2436
1777324658164,2386
1777324658166,2293
1777324658168,2170
1777324658170,2063
1777324658172,2019
1777324658174,2043
1777324658156,2124
1777324658158,2283
1777324658160,2309
1777324658162,2313
1777324658164,2157
1777324658166,2102
1777324658168,1923
1777324658170,1843
1777324658172,1819
1777324658174,1850
1777324658156,1926
1777324658158,2007
1777324658160,2073
1777324658162,2086
1777324658164,2039
1777324658166,1938
1777324658168,1820
1777324658170,1722
1777324658172,1676
1777324658174,1716
1777324658211,2037
1777324658213,1900
1777324658215,2022
1777324658217,1948
1777324658219,2069
1777324658221,1967
1777324658223,1905
1777324658225,1810
1777324658227,1741
1777324658229,1738
1777324658212,1800
1777324658214,1880
1777324658216,1948
1777324658218,1971
1777324658220,1944
1777324658222,1888
1777324658224,1810
1777324658226,1743
1777324658228,1738
1777324658230,1809
1777324658244,1953
1777324658246,2172
1777324658248,2110
1777324658250,2010
1777324658252,2065
1777324658254,1918
1777324658256,1820
1777324658258,1733
1777324658260,1711
1777324658262,1767
1777324658244,1866
1777324658246,1956
1777324658248,2026
1777324658250,2061
1777324658252,2056
1777324658254,1998
1777324658256,1875
1777324658258,1758
1777324658260,1754
1777324658262,1874
1777324658308,2241
1777324658310,2154
1777324658312,2309
1777324658314,2241
1777324658316,2280
1777324658318,2133
1777324658320,2028
1777324658322,1934
1777324658324,1898
1777324658326,1940
1777324658308,2064
1777324658310,2172
1777324658312,2228
1777324658314,2268
1777324658316,2282
1777324658318,2231
1777324658320,2115
1777324658322,2015
1777324658324,1992
1777324658326,2054
1777324658341,2181
1777324658343,2397
1777324658345,2367
1777324658347,2300
1777324658349,2354
1777324658351,2223
1777324658353,2154
1777324658355,2107
1777324658357,2112
1777324658359,2167
1777324658341,2242
1777324658343,2284
1777324658345,2304
1777324658347,2296
1777324658349,2270
1777324658351,2212
1777324658353,2119
1777324658355,2057
1777324658357,2073
1777324658359,2138
1777324658341,2410
1777324658343,2262
1777324658345,2404
1777324658347,2363
1777324658349,2360
1777324658351,2211
1777324658353,2100
1777324658355,2043
1777324658357,2048
1777324658359,2111
1777324658373,2205
1777324658375,2330
1777324658377,2426
1777324658379,2457
1777324658381,2419
1777324658383,2324
1777324658385,2182
1777324658387,2078
1777324658389,2045
1777324658391,2098
1777324658373,2214
1777324658375,2427
1777324658377,2420
1777324658379,2361
1777324658381,2407
1777324658383,2249
1777324658385,2141
1777324658387,2049
1777324658389,2027
1777324658391,2077
1777324658436,2174
1777324658438,2266
1777324658440,2338
1777324658442,2363
1777324658444,2345
1777324658446,2281
1777324658448,2185
1777324658450,2102
1777324658452,2081
1777324658454,2136
1777324658436,2454
1777324658438,2350
1777324658440,2501
1777324658442,2436
1777324658444,2431
1777324658446,2323
1777324658448,2210
1777324658450,2105
1777324658452,2070
1777324658454,2121
1777324658467,2205
1777324658469,2280
1777324658471,2344
1777324658473,2374
1777324658475,2354
1777324658477,2277
1777324658479,2150
1777324658481,2075
1777324658483,2130
1777324658485,2209
1777324658467,2318
1777324658469,2508
1777324658471,2438
1777324658473,2336
1777324658475,2408
1777324658477,2257
1777324658479,2165
1777324658481,2082
1777324658483,2062
1777324658485,2099
1777324658531,2173
1777324658533,2247
1777324658535,2295
1777324658537,2325
1777324658539,2339
1777324658541,2299
1777324658543,2200
1777324658545,2107
1777324658547,2071
1777324658549,2108
1777324658531,2331
1777324658533,2332
1777324658535,2415
1777324658537,2366
1777324658539,2332
1777324658541,2185
1777324658543,2085
1777324658545,2030
1777324658547,2037
1777324658549,2082
1777324658531,2163
1777324658533,2245
1777324658535,2294
1777324658537,2325
1777324658539,2309
1777324658541,2231
1777324658543,2108
1777324658545,1999
1777324658547,1964
1777324658549,2015
1777324658563,2135
1777324658565,2365
1777324658567,2356
1777324658569,2297
1777324658571,2320
1777324658573,2172
1777324658575,2116
1777324658577,2057
1777324658579,2036
1777324658581,2074
1777324658563,2171
1777324658565,2265
1777324658567,2322
1777324658569,2355
1777324658571,2351
1777324658573,2278
1777324658575,2172
1777324658577,2089
1777324658579,2076
1777324658581,2150
1777324658598,2463
1777324658600,2337
1777324658602,2458
1777324658604,2389
1777324658606,2378
1777324658608,2260
1777324658610,2151
1777324658612,2042
1777324658614,2008
1777324658616,2064
1777324658598,2171
1777324658600,2282
1777324658602,2346
1777324658604,2350
1777324658606,2307
1777324658608,2220
1777324658610,2107
1777324658612,2026
1777324658614,2043
1777324658616,2142
1777324658660,2289
1777324658662,2532
1777324658664,2498
1777324658666,2416
1777324658668,2460
1777324658670,2293
1777324658672,2191
1777324658674,2112
1777324658676,2105
1777324658678,2141
1777324658660,2193
1777324658662,2221
1777324658664,2247
1777324658666,2272
1777324658668,2278
1777324658670,2242
1777324658672,2194
1777324658674,2143
1777324658676,2138
1777324658678,2185
1777324658693,2471
1777324658695,2353
1777324658697,2510
1777324658699,2463
1777324658701,2501
1777324658703,2341
1777324658705,2244
1777324658707,2164
1777324658709,2125
1777324658711,2162
1777324658693,2238
1777324658695,2314
1777324658697,2358
1777324658699,2367
1777324658701,2352
1777324658703,2299
1777324658705,2217
1777324658707,2154
1777324658709,2151
1777324658711,2218
1777324658693,2355
1777324658695,2583
1777324658697,2596
1777324658699,2544
1777324658701,2612
1777324658703,2447
1777324658705,2315
1777324658707,2188
1777324658709,2139
1777324658711,2189
1777324658758,2319
1777324658760,2420
1777324658762,2456
1777324658764,2459
1777324658766,2418
1777324658768,2349
1777324658770,2264
1777324658772,2188
1777324658774,2178
1777324658776,2250
1777324658758,2549
1777324658760,2423
1777324658762,2557
1777324658764,2494
1777324658766,2487
1777324658768,2363
1777324658770,2256
1777324658772,2153
1777324658774,2132
1777324658776,2167
1777324658790,2229
1777324658792,2293
1777324658794,2346
1777324658796,2392
1777324658798,2390
1777324658800,2347
1777324658802,2262
1777324658804,2169
1777324658806,2136
1777324658808,2166
1777324658790,2265
1777324658792,2486
1777324658794,2462
1777324658796,2408
1777324658798,2461
1777324658800,2300
1777324658802,2194
1777324658804,2116
1777324658806,2086
1777324658808,2122
1777324658823,2224
1777324658825,2309
1777324658827,2361
1777324658829,2376
1777324658831,2362
1777324658833,2300
1777324658835,2196
1777324658837,2099
1777324658839,2081
1777324658841,2125
1777324658823,2406
1777324658825,2268
1777324658827,2417
1777324658829,2374
1777324658831,2360
1777324658833,2201
1777324658835,2064
1777324658837,1991
1777324658839,2010
1777324658841,2108
1777324658886,2259
1777324658888,2406
1777324658890,2538
1777324658892,2665
1777324658894,2749
1777324658896,2787
1777324658898,2804
1777324658900,2851
1777324658902,2986
1777324658904,3201
1777324658886,3445
1777324658888,3893
1777324658890,3859
1777324658892,3797
1777324658894,3741
1777324658896,3367
1777324658898,2992
1777324658900,2568
1777324658902,2179
1777324658904,1883
1777324658886,1727
1777324658888,1668
1777324658890,1642
1777324658892,1647
1777324658894,1661
1777324658896,1643
1777324658898,1603
1777324658900,1578
1777324658902,1616
1777324658904,1736
1777324658947,2103
1777324658949,2028
1777324658951,2229
1777324658953,2180
1777324658955,2257
1777324658957,2090
1777324658959,2008
1777324658961,1981
1777324658963,2033
1777324658965,2144
1777324658947,2268
1777324658949,2379
1777324658951,2444
1777324658953,2467
1777324658955,2435
1777324658957,2336
1777324658959,2216
1777324658961,2124
1777324658963,2120
1777324658965,2214
1777324658975,2380
1777324658977,2608
1777324658979,2541
1777324658981,2417
1777324658983,2407
1777324658985,2221
1777324658987,2139
1777324658989,2102
1777324658991,2123
1777324658993,2204
1777324658975,2311
1777324658977,2411
1777324658979,2487
1777324658981,2518
1777324658983,2463
1777324658985,2328
1777324658987,2168
1777324658989,2067
1777324658991,2066
1777324658993,2145
1777324659003,2469
1777324659005,2380
1777324659007,2551
1777324659009,2510
1777324659011,2490
1777324659013,2319
1777324659015,2171
1777324659017,2060
1777324659019,2056
1777324659021,2125
1777324659003,2233
1777324659005,2347
1777324659007,2423
1777324659009,2458
1777324659011,2433
1777324659013,2355
1777324659015,2245
1777324659017,2145
1777324659019,2130
1777324659021,2182
1777324659057,2299
1777324659059,2520
1777324659061,2520
1777324659063,2478
1777324659065,2560
1777324659067,2422
1777324659069,2330
1777324659071,2239
1777324659073,2223
1777324659075,2288
1777324659057,2396
1777324659059,2507
1777324659061,2570
1777324659063,2584
1777324659065,2548
1777324659067,2490
1777324659069,2432
1777324659071,2394
1777324659073,2384
1777324659075,2419
1777324659057,2698
1777324659059,2594
1777324659061,2779
1777324659063,2759
1777324659065,2811
1777324659067,2689
1777324659069,2620
1777324659071,2568
1777324659073,2553
1777324659075,2588
1777324659110,2657
1777324659112,2726
1777324659114,2777
1777324659116,2823
1777324659118,2826
1777324659120,2753
1777324659122,2641
1777324659124,2521
1777324659126,2461
1777324659128,2492
1777324659110,2631
1777324659112,2879
1777324659114,2858
1777324659116,2776
1777324659118,2805
1777324659120,2610
1777324659122,2466
1777324659124,2343
1777324659126,2298
1777324659128,2333
1777324659142,2422
1777324659144,2487
1777324659146,2501
1777324659148,2496
1777324659150,2476
1777324659152,2419
1777324659154,2324
1777324659156,2225
1777324659158,2170
1777324659160,2187
1777324659142,2382
1777324659144,2362
1777324659146,2406
1777324659148,2341
1777324659150,2315
1777324659152,2175
1777324659154,2080
1777324659156,2014
1777324659158,2020
1777324659160,2071
1777324659204,2166
1777324659206,2263
1777324659208,2319
1777324659210,2336
1777324659212,2300
1777324659214,2214
1777324659216,2106
1777324659218,2018
1777324659220,2006
1777324659222,2056
1777324659204,2149
1777324659206,2310
1777324659208,2220
1777324659210,2233
1777324659212,2212
1777324659214,2157
1777324659216,2088
1777324659218,2020
1777324659220,2000
1777324659222,2046
1777324659237,2130
1777324659239,2204
1777324659241,2245
1777324659243,2246
1777324659245,2217
1777324659247,2143
1777324659249,2039
1777324659251,1954
1777324659253,1930
1777324659255,1965
1777324659237,2147
1777324659239,2202
1777324659241,2232
1777324659243,2275
1777324659245,2176
1777324659247,2095
1777324659249,1990
1777324659251,1911
1777324659253,1896
1777324659255,1958
1777324659237,2075
1777324659239,2196
1777324659241,2248
1777324659243,2247
1777324659245,2219
1777324659247,2159
1777324659249,2070
1777324659251,1983
1777324659253,1948
1777324659255,2006
1777324659273,2136
1777324659275,2337
1777324659277,2278
1777324659279,2234
1777324659281,2308
1777324659283,2175
1777324659285,2101
1777324659287,2035
1777324659289,2019
1777324659291,2065
1777324659273,2150
1777324659275,2227
1777324659277,2277
1777324659279,2293
1777324659281,2298
1777324659283,2263
1777324659285,2179
1777324659287,2101
1777324659289,2075
1777324659291,2122
1777324659334,2403
1777324659336,2271
1777324659338,2383
1777324659340,2407
1777324659342,2308
1777324659344,2206
1777324659346,2096
1777324659348,1999
1777324659350,1971
1777324659352,2029
1777324659334,2141
1777324659336,2257
1777324659338,2337
1777324659340,2357
1777324659342,2313
1777324659344,2223
1777324659346,2123
1777324659348,2044
1777324659350,2023
1777324659352,2066
1777324659366,2180
1777324659368,2384
1777324659370,2303
1777324659372,2298
1777324659374,2228
1777324659376,2121
1777324659378,2040
1777324659380,1999
1777324659382,2026
1777324659384,2082
1777324659366,2125
1777324659368,2143
1777324659370,2135
1777324659372,2138
1777324659374,2141
1777324659376,2104
1777324659378,2035
1777324659380,1980
1777324659382,1981
1777324659384,2049
1777324659430,2359
1777324659432,2238
1777324659434,2346
1777324659436,2358
1777324659438,2261
1777324659440,2199
1777324659442,2135
1777324659444,2084
1777324659446,2061
1777324659448,2113
1777324659430,2203
1777324659432,2290
1777324659434,2320
1777324659436,2310
1777324659438,2284
1777324659440,2223
1777324659442,2117
1777324659444,2032
1777324659446,2009
1777324659448,2067
1777324659430,2208
1777324659432,2423
1777324659434,2372
1777324659436,2376
1777324659438,2323
1777324659440,2233
1777324659442,2137
1777324659444,2032
1777324659446,1972
1777324659448,2001
1777324659463,2091
1777324659465,2182
1777324659467,2244
1777324659469,2262
1777324659471,2233
1777324659473,2166
1777324659475,2071
1777324659477,1987
1777324659479,1964
1777324659481,2063
1777324659463,2440
1777324659465,2370
1777324659467,2492
1777324659469,2469
1777324659471,2371
1777324659473,2245
1777324659475,2127
1777324659477,2020
1777324659479,1994
1777324659481,2059
1777324659499,2159
1777324659501,2249
1777324659503,2305
1777324659505,2322
1777324659507,2321
1777324659509,2277
1777324659511,2189
1777324659513,2095
1777324659515,2055
1777324659517,2102
1777324659499,2237
1777324659501,2430
1777324659503,2400
1777324659505,2417
1777324659507,2379
1777324659509,2293
1777324659511,2182
1777324659513,2083
1777324659515,2063
1777324659517,2137
1777324659558,2254
1777324659560,2335
1777324659562,2372
1777324659564,2332
1777324659566,2240
1777324659568,2120
1777324659570,2008
1777324659572,1938
1777324659574,1956
1777324659576,2045
1777324659590,2357
1777324659592,2250
1777324659594,2387
1777324659596,2436
1777324659598,2356
1777324659600,2245
1777324659602,2114
1777324659604,2040
1777324659606,2041
1777324659608,2123
1777324659590,2249
1777324659592,2362
1777324659594,2430
1777324659596,2444
1777324659598,2416
1777324659600,2338
1777324659602,2231
1777324659604,2144
1777324659606,2124
1777324659608,2185
1777324659590,2275
1777324659592,2534
1777324659594,2443
1777324659596,2388
1777324659598,2452
1777324659600,2337
1777324659602,2256
1777324659604,2177
1777324659606,2160
1777324659608,2223
1777324659590,2337
1777324659592,2448
1777324659594,2526
1777324659596,2544
1777324659598,2498
1777324659600,2399
1777324659602,2286
1777324659604,2211
1777324659606,2174
1777324659608,2211
1777324659656,2505
1777324659658,2402
1777324659660,2510
1777324659662,2427
1777324659664,2475
1777324659666,2288
1777324659668,2184
1777324659670,2112
1777324659672,2092
1777324659674,2141
1777324659656,2253
1777324659658,2369
1777324659660,2440
1777324659662,2440
1777324659664,2370
1777324659666,2239
1777324659668,2126
1777324659670,2059
1777324659672,2042
1777324659674,2107
1777324659687,2266
1777324659689,2490
1777324659691,2457
1777324659693,2455
1777324659695,2437
1777324659697,2324
1777324659699,2219
1777324659701,2129
1777324659703,2104
1777324659705,2161
1777324659687,2250
1777324659689,2321
1777324659691,2374
1777324659693,2383
1777324659695,2348
1777324659697,2269
1777324659699,2178
1777324659701,2128
1777324659703,2135
1777324659705,2198
1777324659723,2486
1777324659725,2348
1777324659727,2441
1777324659729,2432
1777324659731,2321
1777324659733,2216
1777324659735,2113
1777324659737,2050
1777324659739,2069
1777324659741,2153
1777324659723,2251
1777324659725,2316
1777324659727,2332
1777324659729,2311
1777324659731,2292
1777324659733,2222
1777324659735,2140
1777324659737,2108
1777324659739,2175
1777324659741,2348
1777324659783,2607
1777324659785,2945
1777324659787,3045
1777324659789,3196
1777324659791,3275
1777324659793,3268
1777324659795,3228
1777324659797,3181
1777324659799,3182
1777324659801,3221
1777324659783,3242
1777324659785,3183
1777324659787,3022
1777324659789,2739
1777324659791,2368
1777324659793,1954
1777324659795,1592
1777324659797,1352
1777324659799,1260
1777324659801,1305
1777324659783,1666
1777324659785,1617
1777324659787,1824
1777324659789,1921
1777324659791,1890
1777324659793,1874
1777324659795,1828
1777324659797,1770
1777324659799,1753
1777324659801,1795
1777324659816,1880
1777324659818,1980
1777324659820,2055
1777324659822,2107
1777324659824,2116
1777324659826,2074
1777324659828,2021
1777324659830,1988
1777324659832,2004
1777324659834,2078
1777324659816,2217
1777324659818,2406
1777324659820,2354
1777324659822,2356
1777324659824,2292
1777324659826,2195
1777324659828,2087
1777324659830,1996
1777324659832,1956
1777324659834,2001
1777324659880,2116
1777324659882,2261
1777324659884,2367
1777324659886,2361
1777324659888,2290
1777324659890,2182
1777324659892,2055
1777324659894,1962
1777324659896,1950
1777324659898,2023
1777324659880,2329
1777324659882,2211
1777324659884,2355
1777324659886,2384
1777324659888,2345
1777324659890,2253
1777324659892,2137
1777324659894,2038
1777324659896,2005
1777324659898,2069
1777324659911,2179
1777324659913,2277
1777324659915,2336
1777324659917,2344
1777324659919,2297
1777324659921,2202
1777324659923,2108
1777324659925,2062
1777324659927,2072
1777324659929,2129
1777324659911,2248
1777324659913,2435
1777324659915,2405
1777324659917,2409
1777324659919,2351
1777324659921,2258
1777324659923,2176
1777324659925,2107
1777324659927,2072
1777324659929,2119
1777324659981,2214
1777324659983,2313
1777324659985,2378
1777324659987,2382
1777324659989,2355
1777324659991,2281
1777324659993,2172
1777324659995,2108
1777324659997,2130
1777324659999,2206
1777324659981,2480
1777324659983,2415
1777324659985,2513
1777324659987,2530
1777324659989,2418
1777324659991,2343
1777324659993,2251
1777324659995,2179
1777324659997,2178
1777324659999,2250
1777324659981,2355
1777324659983,2456
1777324659985,2537
1777324659987,2567
1777324659989,2546
1777324659991,2465
1777324659993,2333
1777324659995,2227
1777324659997,2192
1777324659999,2246
1777324660013,2384
1777324660015,2575
1777324660017,2523
1777324660019,2472
1777324660021,2547
1777324660023,2377
1777324660025,2270
1777324660027,2179
1777324660029,2144
1777324660031,2185
1777324660013,2269
1777324660015,2334
1777324660017,2366
1777324660019,2361
1777324660021,2308
1777324660023,2194
1777324660025,2037
1777324660027,1915
1777324660029,1881
1777324660031,1940
1777324660047,2249
1777324660049,2123
1777324660051,2240
1777324660053,2243
1777324660055,2121
1777324660057,2016
1777324660059,1897
1777324660061,1783
1777324660063,1742
1777324660065,1784
1777324660047,1885
1777324660049,1994
1777324660051,2073
1777324660053,2106
1777324660055,2079
1777324660057,2019
1777324660059,1932
1777324660061,1879
1777324660063,1900
1777324660065,1972
1777324660111,2102
1777324660113,2277
1777324660115,2223
1777324660117,2197
1777324660119,2156
1777324660121,2028
1777324660123,1935
1777324660125,1875
1777324660127,1911
1777324660129,2018
1777324660111,2149
1777324660113,2238
1777324660115,2276
1777324660117,2273
1777324660119,2237
1777324660121,2136
1777324660123,2002
1777324660125,1900
1777324660127,1888
1777324660129,1972
1777324660143,2291
1777324660145,2179
1777324660147,2319
1777324660149,2333
1777324660151,2195
1777324660153,2087
1777324660155,1989
1777324660157,1918
1777324660159,1923
1777324660161,1991
1777324660143,2090
1777324660145,2181
1777324660147,2225
1777324660149,2232
1777324660151,2185
1777324660153,2095
1777324660155,1980
1777324660157,1909
1777324660159,1911
1777324660161,1975
1777324660143,2065
1777324660145,2328
1777324660147,2296
1777324660149,2275
1777324660151,2348
1777324660153,2213
1777324660155,2101
1777324660157,2001
1777324660159,1961
1777324660161,2018
1777324660176,2162
1777324660178,2300
1777324660180,2361
1777324660182,2376
1777324660184,2337
1777324660186,2231
1777324660188,2097
1777324660190,1985
1777324660192,1947
1777324660194,1993
1777324660176,2299
1777324660178,2181
1777324660180,2325
1777324660182,2309
1777324660184,2240
1777324660186,2141
1777324660188,2050
1777324660190,1984
1777324660192,1973
1777324660194,2019
1777324660241,2108
1777324660243,2202
1777324660245,2262
1777324660247,2279
1777324660249,2256
1777324660251,2173
1777324660253,2063
1777324660255,1984
1777324660257,1979
1777324660259,2053
1777324660241,2193
1777324660243,2414
1777324660245,2366
1777324660247,2316
1777324660249,2295
1777324660251,2169
1777324660253,2070
1777324660255,1997
1777324660257,2009
1777324660259,2094
1777324660274,2191
1777324660276,2237
1777324660278,2257
1777324660280,2266
1777324660282,2283
1777324660284,2241
1777324660286,2133
1777324660288,2031
1777324660290,2009
1777324660292,2046
1777324660274,2317
1777324660276,2193
1777324660278,2321
1777324660280,2297
1777324660282,2275
1777324660284,2128
1777324660286,1983
1777324660288,1860
1777324660290,1819
1777324660292,1863
1777324660341,1954
1777324660343,2064
1777324660345,2174
1777324660347,2235
1777324660349,2208
1777324660351,2108
1777324660353,1972
1777324660355,1856
1777324660357,1822
1777324660359,1884
1777324660341,1978
1777324660343,2286
1777324660345,2214
1777324660347,2157
1777324660349,2229
1777324660351,2055
1777324660353,1966
1777324660355,1912
1777324660357,1899
1777324660359,1915
1777324660341,1967
1777324660343,2021
1777324660345,2051
1777324660347,2045
1777324660349,2001
1777324660351,1924
1777324660353,1830
1777324660355,1789
1777324660357,1828
1777324660359,1915
1777324660375,2234
1777324660377,2119
1777324660379,2253
1777324660381,2196
1777324660383,2253
1777324660385,2091
1777324660387,2003
1777324660389,1913
1777324660391,1868
1777324660393,1907
1777324660375,1975
1777324660377,2032
1777324660379,2094
1777324660381,2145
1777324660383,2140
1777324660385,2073
1777324660387,1960
1777324660389,1842
1777324660391,1811
1777324660393,1868
1777324660408,1989
1777324660410,2197
1777324660412,2176
1777324660414,2146
1777324660416,2106
1777324660418,1964
1777324660420,1855
1777324660422,1765
1777324660424,1768
1777324660426,1838
1777324660408,1929
1777324660410,2001
1777324660412,2049
1777324660414,2068
1777324660416,2030
1777324660418,1962
1777324660420,1893
1777324660422,1836
1777324660424,1821
1777324660426,1855
1777324660475,2132
1777324660477,1975
1777324660479,2107
1777324660481,2110
1777324660483,2055
1777324660485,1965
1777324660487,1881
1777324660489,1818
1777324660491,1824
1777324660493,1882
1777324660475,1976
1777324660477,2080
1777324660479,2144
1777324660481,2163
1777324660483,2147
1777324660485,2098
1777324660487,2003
1777324660489,1919
1777324660491,1905
1777324660493,1960
1777324660509,2075
1777324660511,2257
1777324660513,2170
1777324660515,2108
1777324660517,2167
1777324660519,2076
1777324660521,2009
1777324660523,1942
1777324660525,1940
1777324660527,2000
1777324660509,2096
1777324660511,2179
1777324660513,2223
1777324660515,2225
1777324660517,2188
1777324660519,2113
1777324660521,2009
1777324660523,1928
1777324660525,1932
1777324660527,1998
1777324660509,2307
1777324660511,2185
1777324660513,2302
1777324660515,2288
1777324660517,2201
1777324660519,2050
1777324660521,1918
1777324660523,1855
1777324660525,1873
1777324660527,1936
1777324660543,2034
1777324660545,2124
1777324660547,2155
1777324660549,2150
1777324660551,2096
1777324660553,2004
1777324660555,1900
1777324660557,1823
1777324660559,1836
1777324660561,1932
1777324660543,2099
1777324660545,2345
1777324660547,2283
1777324660549,2199
1777324660551,2110
1777324660553,1945
1777324660555,1834
1777324660557,1763
1777324660559,1770
1777324660561,1843
1777324660610,1946
1777324660612,2031
1777324660614,2074
1777324660616,2094
1777324660618,2064
1777324660620,1988
1777324660622,1892
1777324660624,1819
1777324660626,1822
1777324660628,1888
1777324660610,2197
1777324660612,2079
1777324660614,2227
1777324660616,2209
1777324660618,2100
1777324660620,1957
1777324660622,1832
1777324660624,1740
1777324660626,1736
1777324660628,1799
1777324660677,1905
1777324660679,2021
1777324660681,2110
1777324660683,2167
1777324660685,2178
1777324660687,2131
1777324660689,2051
1777324660691,2019
1777324660693,2119
1777324660695,2342
1777324660677,2646
1777324660679,3047
1777324660681,3162
1777324660683,3291
1777324660685,3410
1777324660687,3399
1777324660689,3362
1777324660691,3274
1777324660693,3176
1777324660695,3063
1777324660677,2923
1777324660679,2744
1777324660681,2503
1777324660683,2180
1777324660685,1828
1777324660687,1516
1777324660689,1288
1777324660691,1157
1777324660693,1160
1777324660695,1260
1777324660677,1603
1777324660679,1528
1777324660681,1724
1777324660683,1741
1777324660685,1738
1777324660687,1660
1777324660689,1601
1777324660691,1572
1777324660693,1622
1777324660695,1726
1777324660678,1839
1777324660680,1959
1777324660682,2059
1777324660684,2137
1777324660686,2155
1777324660688,2071
1777324660690,1922
1777324660692,1782
1777324660694,1745
1777324660696,1803
1777324660742,1943
1777324660744,2170
1777324660746,2117
1777324660748,2081
1777324660750,2187
1777324660752,2042
1777324660754,1969
1777324660756,1886
1777324660758,1859
1777324660760,1911
1777324660742,2001
1777324660744,2089
1777324660746,2141
1777324660748,2163
1777324660750,2163
1777324660752,2107
1777324660754,1986
1777324660756,1886
1777324660758,1858
1777324660760,1913
1777324660774,2219
1777324660776,2100
1777324660778,2252
1777324660780,2234
1777324660782,2163
1777324660784,2036
1777324660786,1923
1777324660788,1843
1777324660790,1859
1777324660792,1950
1777324660774,2078
1777324660776,2193
1777324660778,2255
1777324660780,2249
1777324660782,2185
1777324660784,2082
1777324660786,1978
1777324660788,1905
1777324660790,1903
1777324660792,1986
1777324660807,2157
1777324660809,2388
1777324660811,2345
1777324660813,2321
1777324660815,2269
1777324660817,2138
1777324660819,2047
1777324660821,1982
1777324660823,2000
1777324660825,2081
1777324660807,2196
1777324660809,2281
1777324660811,2308
1777324660813,2313
1777324660815,2296
1777324660817,2221
1777324660819,2129
1777324660821,2097
1777324660823,2156
1777324660825,2230
1777324660871,2488
1777324660873,2316
1777324660875,2407
1777324660877,2367
1777324660879,2315
1777324660881,2264
1777324660883,2200
1777324660885,2146
1777324660887,2167
1777324660889,2259
1777324660871,2375
1777324660873,2475
1777324660875,2519
1777324660877,2526
1777324660879,2501
1777324660881,2431
1777324660883,2332
1777324660885,2255
1777324660887,2249
1777324660889,2319
1777324660871,2437
1777324660873,2640
1777324660875,2589
1777324660877,2513
1777324660879,2505
1777324660881,2347
1777324660883,2242
1777324660885,2152
1777324660887,2119
1777324660889,2146
1777324660902,2206
1777324660904,2270
1777324660906,2312
1777324660908,2315
1777324660910,2273
1777324660912,2168
1777324660914,2044
1777324660916,1941
1777324660918,1914
1777324660920,1948
1777324660902,2206
1777324660904,2042
1777324660906,2162
1777324660908,2166
1777324660910,2105
1777324660912,1976
1777324660914,1848
1777324660916,1754
1777324660918,1734
1777324660920,1788
1777324660966,1884
1777324660968,1971
1777324660970,2004
1777324660972,1982
1777324660974,1920
1777324660976,1846
1777324660978,1767
1777324660980,1705
1777324660982,1720
1777324660984,1808
1777324660966,1930
1777324660968,2134
1777324660970,2090
1777324660972,2057
1777324660974,2028
1777324660976,1860
1777324660978,1739
1777324660980,1658
1777324660982,1651
1777324660984,1731
1777324660997,1858
1777324660999,1969
1777324661001,2045
1777324661003,2070
1777324661005,2021
1777324661007,1896
1777324661009,1765
1777324661011,1687
1777324661013,1706
1777324661015,1799
1777324660997,2119
1777324660999,2005
1777324661001,2132
1777324661003,2105
1777324661005,2024
1777324661007,1927
1777324661009,1836
1777324661011,1762
1777324661013,1764
1777324661015,1816
1777324661095,1894
1777324661097,1985
1777324661099,2050
1777324661101,2082
1777324661103,2070
1777324661105,1978
1777324661107,1855
1777324661109,1755
1777324661111,1739
1777324661113,1810
1777324661095,1898
1777324661097,2202
1777324661099,2171
1777324661101,2143
1777324661103,2223
1777324661105,2029
1777324661107,1905
1777324661109,1817
1777324661111,1798
1777324661113,1855
1777324661095,1962
1777324661097,2069
1777324661099,2139
1777324661101,2165
1777324661103,2142
1777324661105,2078
1777324661107,2000
1777324661109,1943
1777324661111,1971
1777324661113,2043
1777324661095,2320
1777324661097,2174
1777324661099,2284
1777324661101,2202
1777324661103,2200
1777324661105,2061
1777324661107,1989
1777324661109,1926
1777324661111,1922
1777324661113,1989
1777324661095,2090
1777324661097,2172
1777324661099,2207
1777324661101,2230
1777324661103,2219
1777324661105,2139
1777324661107,2016
1777324661109,1926
1777324661111,1901
1777324661113,1957
1777324661126,2076
1777324661128,2306
1777324661130,2273
1777324661132,2249
1777324661134,2220
1777324661136,2085
1777324661138,2008
1777324661140,1950
1777324661142,1958
1777324661144,2022
1777324661126,2089
1777324661128,2144
1777324661130,2205
1777324661132,2207
1777324661134,2144
1777324661136,2049
1777324661138,1965
1777324661140,1933
1777324661142,1980
1777324661144,2081
1777324661165,2327
1777324661167,2333
1777324661169,2392
1777324661171,2330
1777324661173,2232
1777324661175,2110
1777324661177,2012
1777324661179,1937
1777324661181,1932
1777324661183,1998
1777324661165,2104
1777324661167,2204
1777324661169,2264
1777324661171,2280
1777324661173,2253
1777324661175,2168
1777324661177,2062
1777324661179,1983
1777324661181,1964
1777324661183,2022
1777324661228,2154
1777324661230,2366
1777324661232,2322
1777324661234,2286
1777324661236,2268
1777324661238,2121
1777324661240,2023
1777324661242,1962
1777324661244,1965
1777324661246,2030
1777324661228,2099
1777324661230,2170
1777324661232,2194
1777324661234,2171
1777324661236,2148
1777324661238,2088
1777324661240,2034
1777324661242,1998
1777324661244,2000
1777324661246,2055
1777324661228,2346
1777324661230,2233
1777324661232,2362
1777324661234,2339
1777324661236,2274
1777324661238,2164
1777324661240,2075
1777324661242,2017
1777324661244,1998
1777324661246,2046
1777324661267,2136
1777324661269,2226
1777324661271,2272
1777324661273,2286
1777324661275,2249
1777324661277,2144
1777324661279,2037
1777324661281,1991
1777324661283,2017
1777324661285,2107
1777324661267,2244
1777324661269,2459
1777324661271,2393
1777324661273,2323
1777324661275,2350
1777324661277,2177
1777324661279,2067
1777324661281,2001
1777324661283,2019
1777324661285,2131
1777324661305,2274
1777324661307,2348
1777324661309,2361
1777324661311,2353
1777324661313,2322
1777324661315,2246
1777324661317,2161
1777324661319,2083
1777324661321,2054
1777324661323,2099
1777324661305,2359
1777324661307,2230
1777324661309,2369
1777324661311,2387
1777324661313,2346
1777324661315,2272
1777324661317,2209
1777324661319,2157
1777324661321,2157
1777324661323,2209
1777324661343,2268
1777324661345,2337
1777324661347,2379
1777324661349,2386
1777324661351,2362
1777324661353,2285
1777324661355,2202
1777324661357,2141
1777324661359,2140
1777324661361,2189
1777324661343,2287
1777324661345,2516
1777324661347,2499
1777324661349,2483
1777324661351,2482
1777324661353,2370
1777324661355,2276
1777324661357,2170
1777324661359,2115
1777324661361,2148
1777324661418,2236
1777324661420,2332
1777324661422,2404
1777324661424,2428
1777324661426,2396
1777324661428,2293
1777324661430,2189
1777324661432,2146
1777324661434,2167
1777324661436,2235
1777324661418,2461
1777324661420,2397
1777324661422,2459
1777324661424,2454
1777324661426,2400
1777324661428,2337
1777324661430,2259
1777324661432,2194
1777324661434,2179
1777324661436,2237
1777324661418,2349
1777324661420,2461
1777324661422,2515
1777324661424,2495
1777324661426,2417
1777324661428,2319
1777324661430,2234
1777324661432,2198
1777324661434,2229
1777324661436,2328
1777324661454,2465
1777324661456,2670
1777324661458,2630
1777324661460,2550
1777324661462,2600
1777324661464,2405
1777324661466,2310
1777324661468,2270
1777324661470,2293
1777324661472,2376
1777324661455,2483
1777324661457,2571
1777324661459,2615
1777324661461,2614
1777324661463,2575
1777324661465,2491
1777324661467,2405
1777324661469,2343
1777324661471,2333
1777324661473,2383
1777324661485,2650
1777324661487,2530
1777324661489,2652
1777324661491,2629
1777324661493,2615
1777324661495,2519
1777324661497,2457
1777324661499,2390
1777324661501,2377
1777324661503,2401
1777324661485,2445
1777324661487,2505
1777324661489,2547
1777324661491,2541
1777324661493,2504
1777324661495,2458
1777324661497,2389
1777324661499,2316
1777324661501,2323
1777324661503,2400
1777324661547,2527
1777324661549,2714
1777324661551,2645
1777324661553,2577
1777324661555,2522
1777324661557,2370
1777324661559,2274
1777324661561,2227
1777324661563,2259
1777324661565,2345
1777324661547,2455
1777324661549,2520
1777324661551,2538
1777324661553,2536
1777324661555,2512
1777324661557,2429
1777324661559,2312
1777324661561,2224
1777324661563,2202
1777324661565,2258
1777324661578,2551
1777324661580,2458
1777324661582,2611
1777324661584,2628
1777324661586,2587
1777324661588,2491
1777324661590,2382
1777324661592,2305
1777324661594,2310
1777324661596,2387
1777324661578,2488
1777324661580,2589
1777324661582,2653
1777324661584,2672
1777324661586,2624
1777324661588,2521
1777324661590,2385
1777324661592,2282
1777324661594,2268
1777324661596,2322
1777324661578,2445
1777324661580,2672
1777324661582,2660
1777324661584,2681
1777324661586,2708
1777324661588,2627
1777324661590,2572
1777324661592,2562
1777324661594,2666
1777324661596,2877
1777324661643,3128
1777324661645,3382
1777324661647,3609
1777324661649,3812
1777324661651,3961
1777324661653,4013
1777324661655,3980
1777324661657,3903
1777324661659,3784
1777324661661,3639
1777324661643,3667
1777324661645,3223
1777324661647,3037
1777324661649,2722
1777324661651,2413
1777324661653,2140
1777324661655,1943
1777324661657,1837
1777324661659,1836
1777324661661,1895
1777324661706,1966
1777324661708,2017
1777324661710,2059
1777324661712,2102
1777324661714,2141
1777324661716,2128
1777324661718,2080
1777324661720,2077
1777324661722,2160
1777324661724,2277
1777324661706,2422
1777324661708,2638
1777324661710,2622
1777324661712,2592
1777324661714,2624
1777324661716,2488
1777324661718,2398
1777324661720,2324
1777324661722,2322
1777324661724,2395
1777324661706,2500
1777324661708,2575
1777324661710,2613
1777324661712,2606
1777324661714,2562
1777324661716,2488
1777324661718,2403
1777324661720,2341
1777324661722,2354
1777324661724,2443
1777324661706,2745
1777324661708,2630
1777324661710,2752
1777324661712,2740
1777324661714,2676
1777324661716,2558
1777324661718,2459
1777324661720,2402
1777324661722,2418
1777324661724,2491
1777324661766,2568
1777324661768,2624
1777324661770,2670
1777324661772,2695
1777324661774,2670
1777324661776,2578
1777324661778,2462
1777324661780,2386
1777324661782,2382
1777324661784,2455
1777324661766,2562
1777324661768,2844
1777324661770,2756
1777324661772,2661
1777324661774,2707
1777324661776,2553
1777324661778,2503
1777324661780,2495
1777324661782,2540
1777324661784,2638
1777324661766,2742
1777324661768,2816
1777324661770,2844
1777324661772,2828
1777324661774,2769
1777324661776,2653
1777324661778,2510
1777324661780,2415
1777324661782,2403
1777324661784,2500
1777324661796,2835
1777324661798,2741
1777324661800,2868
1777324661802,2802
1777324661804,2855
1777324661806,2680
1777324661808,2567
1777324661810,2491
1777324661812,2492
1777324661814,2558
1777324661796,2659
1777324661798,2758
1777324661800,2828
1777324661802,2864
1777324661804,2851
1777324661806,2781
1777324661808,2676
1777324661810,2599
1777324661812,2602
1777324661814,2682
1777324661857,2818
1777324661859,3020
1777324661861,2969
1777324661863,2929
1777324661865,2922
1777324661867,2823
1777324661869,2725
1777324661871,2637
1777324661873,2614
1777324661875,2656
1777324661857,2724
1777324661859,2776
1777324661861,2813
1777324661863,2833
1777324661865,2839
1777324661867,2788
1777324661869,2665
1777324661871,2510
1777324661873,2409
1777324661875,2417
1777324661886,2693
1777324661888,2578
1777324661890,2697
1777324661892,2659
1777324661894,2632
1777324661896,2488
1777324661898,2345
1777324661900,2242
1777324661902,2250
1777324661904,2317
1777324661886,2399
1777324661888,2473
1777324661890,2509
1777324661892,2494
1777324661894,2435
1777324661896,2331
1777324661898,2206
1777324661900,2124
1777324661902,2117
1777324661904,2173
1777324661946,2286
1777324661948,2469
1777324661950,2414
1777324661952,2381
1777324661954,2367
1777324661956,2235
1777324661958,2126
1777324661960,2068
1777324661962,2110
1777324661964,2191
1777324661946,2288
1777324661948,2364
1777324661950,2404
1777324661952,2401
1777324661954,2359
1777324661956,2283
1777324661958,2201
1777324661960,2144
1777324661962,2131
1777324661964,2184
1777324661946,2473
1777324661948,2347
1777324661950,2468
1777324661952,2450
1777324661954,2400
1777324661956,2327
1777324661958,2255
1777324661960,2184
1777324661962,2144
1777324661964,2160
1777324661976,2216
1777324661978,2276
1777324661980,2352
1777324661982,2413
1777324661984,2415
1777324661986,2340
1777324661988,2231
1777324661990,2153
1777324661992,2144
1777324661994,2202
1777324661976,2301
1777324661978,2473
1777324661980,2406
1777324661982,2349
1777324661984,2328
1777324661986,2213
1777324661988,2124
1777324661990,2052
1777324661992,2048
1777324661994,2127
1777324662035,2241
1777324662037,2317
1777324662039,2360
1777324662041,2363
1777324662043,2339
1777324662045,2265
1777324662047,2165
1777324662049,2104
1777324662051,2121
1777324662053,2196
1777324662035,2488
1777324662037,2364
1777324662039,2480
1777324662041,2468
1777324662043,2400
1777324662045,2293
1777324662047,2195
1777324662049,2141
1777324662051,2166
1777324662053,2245
1777324662064,2373
1777324662066,2492
1777324662068,2559
1777324662070,2568
1777324662072,2508
1777324662074,2392
1777324662076,2274
1777324662078,2213
1777324662080,2238
1777324662082,2300
1777324662064,2386
1777324662066,2584
1777324662068,2521
1777324662070,2464
1777324662072,2486
1777324662074,2347
1777324662076,2242
1777324662078,2186
1777324662080,2225
1777324662082,2333
1777324662123,2450
1777324662125,2508
1777324662127,2535
1777324662129,2554
1777324662131,2550
1777324662133,2495
1777324662135,2400
1777324662137,2325
1777324662139,2297
1777324662141,2330
1777324662123,2558
1777324662125,2497
1777324662127,2579
1777324662129,2590
1777324662131,2516
1777324662133,2424
1777324662135,2330
1777324662137,2283
1777324662139,2309
1777324662141,2393
1777324662123,2491
1777324662125,2550
1777324662127,2563
1777324662129,2542
1777324662131,2507
1777324662133,2439
1777324662135,2329
1777324662137,2241
1777324662139,2241
1777324662141,2305
1777324662153,2394
1777324662155,2659
1777324662157,2532
1777324662159,2621
1777324662161,2528
1777324662163,2561
1777324662165,2405
1777324662167,2336
1777324662169,2312
1777324662171,2360
1777324662153,2460
1777324662155,2519
1777324662157,2540
1777324662159,2521
1777324662161,2468
1777324662163,2384
1777324662165,2299
1777324662167,2263
1777324662169,2283
1777324662171,2360
1777324662216,2661
1777324662218,2538
1777324662220,2703
1777324662222,2673
1777324662224,2662
1777324662226,2504
1777324662228,2381
1777324662230,2306
1777324662232,2323
1777324662234,2415
1777324662216,2510
1777324662218,2584
1777324662220,2618
1777324662222,2610
1777324662224,2556
1777324662226,2467
1777324662228,2366
1777324662230,2309
1777324662232,2325
1777324662234,2391
1777324662250,2503
1777324662252,2707
1777324662254,2659
1777324662256,2561
1777324662258,2588
1777324662260,2430
1777324662262,2346
1777324662264,2290
1777324662266,2282
1777324662268,2307
1777324662250,2389
1777324662252,2471
1777324662254,2528
1777324662256,2560
1777324662258,2550
1777324662260,2465
1777324662262,2329
1777324662264,2218
1777324662266,2193
1777324662268,2278
1777324662313,2597
1777324662315,2518
1777324662317,2684
1777324662319,2604
1777324662321,2582
1777324662323,2428
1777324662325,2347
1777324662327,2279
1777324662329,2295
1777324662331,2391
1777324662313,2505
1777324662315,2580
1777324662317,2581
1777324662319,2529
1777324662321,2468
1777324662323,2390
1777324662325,2301
1777324662327,2237
1777324662329,2242
1777324662331,2313
1777324662313,2437
1777324662315,2644
1777324662317,2590
1777324662319,2506
1777324662321,2555
1777324662323,2399
1777324662325,2293
1777324662327,2212
1777324662329,2221
1777324662331,2292
1777324662344,2380
1777324662346,2442
1777324662348,2475
1777324662350,2487
1777324662352,2451
1777324662354,2369
1777324662356,2284
1777324662358,2237
1777324662360,2246
1777324662362,2297
1777324662344,2571
1777324662346,2454
1777324662348,2600
1777324662350,2552
1777324662352,2543
1777324662354,2375
1777324662356,2244
1777324662358,2176
1777324662360,2199
1777324662362,2290
1777324662378,2407
1777324662380,2523
1777324662382,2585
1777324662384,2592
1777324662386,2560
1777324662388,2467
1777324662390,2357
1777324662392,2308
1777324662394,2332
1777324662396,2409
1777324662378,2538
1777324662380,2756
1777324662382,2717
1777324662384,2610
1777324662386,2619
1777324662388,2479
1777324662390,2429
1777324662392,2395
1777324662394,2419
1777324662396,2495
1777324662442,2588
1777324662444,2653
1777324662446,2659
1777324662448,2621
1777324662450,2560
1777324662452,2473
1777324662454,2390
1777324662456,2333
1777324662458,2360
1777324662460,2450
1777324662442,2762
1777324662444,2658
1777324662446,2800
1777324662448,2742
1777324662450,2706
1777324662452,2549
1777324662454,2462
1777324662456,2422
1777324662458,2449
1777324662460,2509
1777324662474,2591
1777324662476,2669
1777324662478,2726
1777324662480,2752
1777324662482,2724
1777324662484,2644
1777324662486,2525
1777324662488,2424
1777324662490,2397
1777324662492,2449
1777324662474,2542
1777324662476,2826
1777324662478,2754
1777324662480,2716
1777324662482,2755
1777324662484,2588
1777324662486,2490
1777324662488,2420
1777324662490,2410
1777324662492,2459
1777324662474,2540
1777324662476,2605
1777324662478,2626
1777324662480,2621
1777324662482,2577
1777324662484,2489
1777324662486,2387
1777324662488,2320
1777324662490,2348
1777324662492,2415
1777324662537,2683
1777324662539,2561
1777324662541,2736
1777324662543,2702
1777324662545,2783
1777324662547,2619
1777324662549,2490
1777324662551,2388
1777324662553,2376
1777324662555,2449
1777324662537,2552
1777324662539,2642
1777324662541,2689
1777324662543,2714
1777324662545,2693
1777324662547,2602
1777324662549,2484
1777324662551,2397
1777324662553,2398
1777324662555,2488
1777324662569,2635
1777324662571,2845
1777324662573,2799
1777324662575,2707
1777324662577,2727
1777324662579,2550
1777324662581,2467
1777324662583,2417
1777324662585,2426
1777324662587,2494
1777324662569,2568
1777324662571,2624
1777324662573,2676
1777324662575,2713
1777324662577,2720
1777324662579,2704
1777324662581,2690
1777324662583,2726
1777324662585,2854
1777324662587,3060
1777324662603,3509
1777324662605,3558
1777324662607,3908
1777324662609,4019
1777324662611,4095
1777324662613,4095
1777324662615,4094
1777324662617,4039
1777324662619,3948
1777324662621,3824
1777324662603,3651
1777324662605,3414
1777324662607,3117
1777324662609,2827
1777324662611,2566
1777324662613,2338
1777324662615,2150
1777324662617,2015
1777324662619,1976
1777324662621,2023
1777324662662,2124
1777324662664,2334
1777324662666,2316
1777324662668,2297
1777324662670,2421
1777324662672,2364
1777324662674,2350
1777324662676,2315
1777324662678,2339
1777324662680,2429
1777324662662,2536
1777324662664,2624
1777324662666,2664
1777324662668,2675
1777324662670,2663
1777324662672,2601
1777324662674,2521
1777324662676,2465
1777324662678,2478
1777324662680,2577
1777324662662,2881
1777324662664,2768
1777324662666,2887
1777324662668,2791
1777324662670,2787
1777324662672,2615
1777324662674,2532
1777324662676,2495
1777324662678,2533
1777324662680,2638
1777324662721,2754
1777324662723,2858
1777324662725,2908
1777324662727,2930
1777324662729,2916
1777324662731,2845
1777324662733,2739
1777324662735,2646
1777324662737,2630
1777324662739,2712
1777324662721,2865
1777324662723,3109
1777324662725,3093
1777324662727,3023
1777324662729,3077
1777324662731,2912
1777324662733,2816
1777324662735,2751
1777324662737,2756
1777324662739,2832
1777324662750,2924
1777324662752,3001
1777324662754,3039
1777324662756,3048
1777324662758,3031
1777324662760,2958
1777324662762,2869
1777324662764,2805
1777324662766,2832
1777324662768,2959
1777324662750,3305
1777324662752,3214
1777324662754,3339
1777324662756,3247
1777324662758,3194
1777324662760,3033
1777324662762,2938
1777324662764,2877
1777324662766,2886
1777324662768,2971
1777324662808,3094
1777324662810,3213
1777324662812,3291
1777324662814,3321
1777324662816,3282
1777324662818,3172
1777324662820,3060
1777324662822,2988
1777324662824,3008
1777324662826,3100
1777324662808,3201
1777324662810,3498
1777324662812,3445
1777324662814,3377
1777324662816,3443
1777324662818,3271
1777324662820,3182
1777324662822,3128
1777324662824,3149
1777324662826,3229
1777324662837,3325
1777324662839,3401
1777324662841,3433
1777324662843,3422
1777324662845,3369
1777324662847,3269
1777324662849,3171
1777324662851,3105
1777324662853,3114
1777324662855,3189
1777324662837,3472
1777324662839,3461
1777324662841,3555
1777324662843,3478
1777324662845,3421
1777324662847,3235
1777324662849,3105
1777324662851,3009
1777324662853,2996
