timestamp_ms,ecg_raw
1777324311585,2741
1777324311587,2655
1777324311589,2535
1777324311591,2441
1777324311593,2434
1777324311595,2511
1777324311597,2612
1777324311599,2706
1777324311601,2766
1777324311603,2779
1777324311585,2882
1777324311587,2706
1777324311589,2583
1777324311591,2567
1777324311593,2466
1777324311595,2532
1777324311597,2648
1777324311599,2754
1777324311601,2832
1777324311603,2878
1777324311585,2874
1777324311587,2808
1777324311589,2696
1777324311591,2587
1777324311593,2507
1777324311595,2521
1777324311597,2603
1777324311599,2712
1777324311601,2807
1777324311603,2856
1777324311616,2933
1777324311618,2852
1777324311620,2657
1777324311622,2544
1777324311624,2558
1777324311626,2533
1777324311628,2655
1777324311630,2775
1777324311632,2836
1777324311634,2849
1777324311616,2816
1777324311618,2714
1777324311620,2570
1777324311622,2456
1777324311624,2427
1777324311626,2484
1777324311628,2571
1777324311630,2648
1777324311632,2682
1777324311634,2676
1777324311647,2832
1777324311649,2561
1777324311651,2478
1777324311653,2439
1777324311655,2319
1777324311657,2370
1777324311659,2469
1777324311661,2576
1777324311663,2654
1777324311665,2680
1777324311647,2663
1777324311649,2605
1777324311651,2503
1777324311653,2362
1777324311655,2260
1777324311657,2274
1777324311659,2367
1777324311661,2486
1777324311663,2591
1777324311665,2634
1777324311743,2702
1777324311745,2634
1777324311747,2440
1777324311749,2352
1777324311751,2160
1777324311753,2149
1777324311755,2212
1777324311757,2325
1777324311759,2423
1777324311761,2484
1777324311743,2507
1777324311745,2469
1777324311747,2370
1777324311749,2258
1777324311751,2226
1777324311753,2307
1777324311755,2422
1777324311757,2505
1777324311759,2539
1777324311761,2544
1777324311744,2708
1777324311746,2430
1777324311748,2337
1777324311750,2297
1777324311752,2175
1777324311754,2228
1777324311756,2318
1777324311758,2412
1777324311760,2473
1777324311762,2495
1777324311744,2464
1777324311746,2386
1777324311748,2268
1777324311750,2151
1777324311752,2089
1777324311754,2114
1777324311756,2207
1777324311758,2312
1777324311760,2389
1777324311762,2440
1777324311744,2525
1777324311746,2439
1777324311748,2213
1777324311750,2135
1777324311752,1984
1777324311754,2029
1777324311756,2153
1777324311758,2283
1777324311760,2364
1777324311762,2387
1777324311806,2363
1777324311808,2287
1777324311810,2177
1777324311812,2077
1777324311814,2035
1777324311816,2094
1777324311818,2211
1777324311820,2311
1777324311822,2364
1777324311824,2385
1777324311806,2565
1777324311808,2292
1777324311810,2212
1777324311812,2197
1777324311814,2113
1777324311816,2201
1777324311818,2327
1777324311820,2432
1777324311822,2459
1777324311824,2435
1777324311838,2382
1777324311840,2301
1777324311842,2174
1777324311844,2040
1777324311846,1976
1777324311848,2007
1777324311850,2114
1777324311852,2230
1777324311854,2319
1777324311856,2361
1777324311838,2454
1777324311840,2401
1777324311842,2202
1777324311844,2154
1777324311846,2014
1777324311848,2066
1777324311850,2180
1777324311852,2286
1777324311854,2385
1777324311856,2442
1777324311870,2434
1777324311872,2351
1777324311874,2203
1777324311876,2094
1777324311878,2059
1777324311880,2114
1777324311882,2204
1777324311884,2300
1777324311886,2373
1777324311888,2420
1777324311870,2630
1777324311872,2401
1777324311874,2355
1777324311876,2345
1777324311878,2201
1777324311880,2210
1777324311882,2285
1777324311884,2390
1777324311886,2483
1777324311888,2533
1777324311934,2534
1777324311936,2489
1777324311938,2388
1777324311940,2279
1777324311942,2213
1777324311944,2252
1777324311946,2362
1777324311948,2476
1777324311950,2557
1777324311952,2599
1777324311934,2578
1777324311936,2677
1777324311938,2384
1777324311940,2304
1777324311942,2198
1777324311944,2222
1777324311946,2325
1777324311948,2455
1777324311950,2562
1777324311952,2593
1777324311934,2570
1777324311936,2499
1777324311938,2391
1777324311940,2300
1777324311942,2266
1777324311944,2312
1777324311946,2399
1777324311948,2495
1777324311950,2560
1777324311952,2584
1777324311965,2763
1777324311967,2511
1777324311969,2467
1777324311971,2348
1777324311973,2323
1777324311975,2270
1777324311977,2392
1777324311979,2545
1777324311981,2644
1777324311983,2664
1777324311965,2634
1777324311967,2554
1777324311969,2412
1777324311971,2314
1777324311973,2232
1777324311975,2291
1777324311977,2410
1777324311979,2533
1777324311981,2636
1777324311983,2679
1777324312029,2731
1777324312031,2623
1777324312033,2388
1777324312035,2331
1777324312037,2226
1777324312039,2337
1777324312041,2540
1777324312043,2760
1777324312045,2942
1777324312047,3088
1777324312029,3216
1777324312031,3309
1777324312033,3353
1777324312035,3414
1777324312037,3552
1777324312039,3795
1777324312041,4061
1777324312043,4095
1777324312045,4095
1777324312047,4095
1777324312092,4050
1777324312094,3614
1777324312096,3149
1777324312098,2738
1777324312100,2278
1777324312102,2088
1777324312104,2043
1777324312106,2066
1777324312108,2076
1777324312110,2051
1777324312092,2005
1777324312094,1941
1777324312096,1849
1777324312098,1784
1777324312100,1800
1777324312102,1923
1777324312104,2111
1777324312106,2292
1777324312108,2442
1777324312110,2546
1777324312122,2688
1777324312124,2671
1777324312126,2488
1777324312128,2440
1777324312130,2290
1777324312132,2321
1777324312134,2419
1777324312136,2525
1777324312138,2617
1777324312140,2678
1777324312122,2669
1777324312124,2589
1777324312126,2456
1777324312128,2327
1777324312130,2271
1777324312132,2315
1777324312134,2432
1777324312136,2567
1777324312138,2678
1777324312140,2702
1777324312122,2845
1777324312124,2561
1777324312126,2478
1777324312128,2414
1777324312130,2255
1777324312132,2307
1777324312134,2444
1777324312136,2569
1777324312138,2643
1777324312140,2675
1777324312152,2688
1777324312154,2644
1777324312156,2507
1777324312158,2356
1777324312160,2278
1777324312162,2312
1777324312164,2430
1777324312166,2561
1777324312168,2648
1777324312170,2683
1777324312152,2670
1777324312154,2809
1777324312156,2565
1777324312158,2483
1777324312160,2406
1777324312162,2411
1777324312164,2514
1777324312166,2631
1777324312168,2728
1777324312170,2779
1777324312211,2786
1777324312213,2734
1777324312215,2598
1777324312217,2463
1777324312219,2392
1777324312221,2423
1777324312223,2547
1777324312225,2702
1777324312227,2814
1777324312229,2863
1777324312211,3052
1777324312213,2786
1777324312215,2655
1777324312217,2544
1777324312219,2359
1777324312221,2378
1777324312223,2482
1777324312225,2608
1777324312227,2717
1777324312229,2788
1777324312240,2800
1777324312242,2759
1777324312244,2655
1777324312246,2531
1777324312248,2440
1777324312250,2443
1777324312252,2523
1777324312254,2623
1777324312256,2703
1777324312258,2751
1777324312240,2840
1777324312242,2799
1777324312244,2604
1777324312246,2549
1777324312248,2409
1777324312250,2462
1777324312252,2596
1777324312254,2752
1777324312256,2863
1777324312258,2887
1777324312298,2829
1777324312300,2703
1777324312302,2523
1777324312304,2352
1777324312306,2253
1777324312308,2245
1777324312310,2317
1777324312312,2415
1777324312314,2486
1777324312316,2523
1777324312298,2641
1777324312300,2450
1777324312302,2288
1777324312304,2199
1777324312306,2016
1777324312308,2010
1777324312310,2095
1777324312312,2199
1777324312314,2266
1777324312316,2285
1777324312298,2260
1777324312300,2183
1777324312302,2057
1777324312304,1935
1777324312306,1862
1777324312308,1856
1777324312310,1930
1777324312312,2037
1777324312314,2130
1777324312316,2173
1777324312327,2276
1777324312329,2229
1777324312331,2031
1777324312333,1864
1777324312335,1838
1777324312337,1730
1777324312339,1811
1777324312341,1921
1777324312343,2018
1777324312345,2096
1777324312327,2137
1777324312329,2108
1777324312331,1981
1777324312333,1842
1777324312335,1773
1777324312337,1805
1777324312339,1904
1777324312341,1998
1777324312343,2046
1777324312345,2063
1777324312383,2257
1777324312385,1989
1777324312387,1885
1777324312389,1827
1777324312391,1670
1777324312393,1724
1777324312395,1872
1777324312397,2028
1777324312399,2134
1777324312401,2167
1777324312383,2135
1777324312385,2052
1777324312387,1910
1777324312389,1769
1777324312391,1701
1777324312393,1729
1777324312395,1840
1777324312397,1964
1777324312399,2063
1777324312401,2125
1777324312412,2238
1777324312414,2174
1777324312416,1949
1777324312418,1850
1777324312420,1716
1777324312422,1792
1777324312424,1929
1777324312426,2042
1777324312428,2114
1777324312430,2135
1777324312412,2096
1777324312414,2019
1777324312416,1902
1777324312418,1803
1777324312420,1783
1777324312422,1872
1777324312424,2004
1777324312426,2096
1777324312428,2129
1777324312430,2121
1777324312478,2274
1777324312480,1985
1777324312482,1891
1777324312484,1830
1777324312486,1706
1777324312488,1757
1777324312490,1870
1777324312492,1985
1777324312494,2061
1777324312496,2095
1777324312478,2077
1777324312480,2028
1777324312482,1936
1777324312484,1849
1777324312486,1815
1777324312488,1841
1777324312490,1929
1777324312492,2040
1777324312494,2130
1777324312496,2184
1777324312510,2264
1777324312512,2219
1777324312514,2037
1777324312516,2009
1777324312518,1868
1777324312520,1888
1777324312522,1976
1777324312524,2087
1777324312526,2162
1777324312528,2193
1777324312510,2169
1777324312512,2099
1777324312514,2000
1777324312516,1901
1777324312518,1853
1777324312520,1892
1777324312522,1998
1777324312524,2121
1777324312526,2216
1777324312528,2271
1777324312510,2432
1777324312512,2149
1777324312514,2058
1777324312516,1993
1777324312518,1821
1777324312520,1853
1777324312522,1976
1777324312524,2136
1777324312526,2249
1777324312528,2294
1777324312575,2264
1777324312577,2189
1777324312579,2073
1777324312581,1987
1777324312583,1960
1777324312585,2024
1777324312587,2141
1777324312589,2228
1777324312591,2266
1777324312593,2270
1777324312575,2320
1777324312577,2263
1777324312579,2075
1777324312581,2033
1777324312583,1900
1777324312585,1951
1777324312587,2061
1777324312589,2170
1777324312591,2230
1777324312593,2252
1777324312607,2236
1777324312609,2187
1777324312611,2092
1777324312613,1994
1777324312615,1945
1777324312617,1990
1777324312619,2119
1777324312621,2199
1777324312623,2190
1777324312625,2142
1777324312607,2276
1777324312609,2002
1777324312611,1944
1777324312613,1930
1777324312615,1803
1777324312617,1878
1777324312619,2026
1777324312621,2165
1777324312623,2250
1777324312625,2285
1777324312637,2248
1777324312639,2163
1777324312641,2025
1777324312643,1884
1777324312645,1808
1777324312647,1849
1777324312649,1972
1777324312651,2117
1777324312653,2212
1777324312655,2268
1777324312638,2266
1777324312640,2403
1777324312642,2115
1777324312644,2033
1777324312646,1948
1777324312648,1974
1777324312650,2084
1777324312652,2199
1777324312654,2268
1777324312656,2294
1777324312638,2286
1777324312640,2235
1777324312642,2126
1777324312644,2002
1777324312646,1920
1777324312648,1922
1777324312650,2011
1777324312652,2148
1777324312654,2261
1777324312656,2309
1777324312703,2490
1777324312705,2233
1777324312707,2146
1777324312709,1957
1777324312711,1984
1777324312713,1918
1777324312715,2018
1777324312717,2121
1777324312719,2195
1777324312721,2230
1777324312703,2226
1777324312705,2176
1777324312707,2073
1777324312709,1947
1777324312711,1875
1777324312713,1911
1777324312715,2015
1777324312717,2128
1777324312719,2209
1777324312721,2254
1777324312734,2313
1777324312736,2244
1777324312738,2047
1777324312740,1981
1777324312742,1840
1777324312744,1858
1777324312746,1922
1777324312748,2012
1777324312750,2084
1777324312752,2119
1777324312734,2112
1777324312736,2059
1777324312738,1976
1777324312740,1907
1777324312742,1876
1777324312744,1904
1777324312746,1981
1777324312748,2060
1777324312750,2118
1777324312752,2152
1777324312799,2335
1777324312801,2091
1777324312803,2038
1777324312805,2003
1777324312807,1822
1777324312809,1837
1777324312811,1945
1777324312813,2091
1777324312815,2165
1777324312817,2182
1777324312799,2156
1777324312801,2113
1777324312803,2036
1777324312805,1962
1777324312807,1904
1777324312809,1902
1777324312811,1965
1777324312813,2055
1777324312815,2140
1777324312817,2212
1777324312830,2290
1777324312832,2209
1777324312834,1995
1777324312836,1897
1777324312838,1733
1777324312840,1766
1777324312842,1873
1777324312844,2001
1777324312846,2087
1777324312848,2116
1777324312830,2048
1777324312832,1936
1777324312834,1807
1777324312836,1692
1777324312838,1645
1777324312840,1666
1777324312842,1738
1777324312844,1817
1777324312846,1877
1777324312848,1922
1777324312830,2131
1777324312832,1885
1777324312834,1839
1777324312836,1813
1777324312838,1648
1777324312840,1670
1777324312842,1777
1777324312844,1905
1777324312846,1998
1777324312848,2053
1777324312862,2057
1777324312864,1982
1777324312866,1878
1777324312868,1764
1777324312870,1680
1777324312872,1673
1777324312874,1746
1777324312876,1852
1777324312878,1933
1777324312880,1993
1777324312862,2106
1777324312864,2094
1777324312866,1899
1777324312868,1794
1777324312870,1599
1777324312872,1608
1777324312874,1713
1777324312876,1848
1777324312878,1945
1777324312880,2002
1777324312926,2011
1777324312928,1965
1777324312930,1857
1777324312932,1733
1777324312934,1677
1777324312936,1731
1777324312938,1849
1777324312940,1997
1777324312942,2127
1777324312944,2241
1777324312926,2526
1777324312928,2397
1777324312930,2456
1777324312932,2558
1777324312934,2584
1777324312936,2799
1777324312938,3114
1777324312940,3475
1777324312942,3803
1777324312944,4054
1777324312957,4095
1777324312959,4095
1777324312961,4080
1777324312963,3839
1777324312965,3527
1777324312967,3251
1777324312969,2995
1777324312971,2781
1777324312973,2573
1777324312975,2349
1777324312957,2210
1777324312959,2026
1777324312961,1801
1777324312963,1779
1777324312965,1680
1777324312967,1813
1777324312969,2051
1777324312971,2332
1777324312973,2523
1777324312975,2625
1777324313022,2660
1777324313024,2661
1777324313026,2623
1777324313028,2574
1777324313030,2606
1777324313032,2744
1777324313034,2952
1777324313036,3166
1777324313038,3329
1777324313040,3419
1777324313022,3582
1777324313024,3408
1777324313026,3303
1777324313028,3271
1777324313030,3147
1777324313032,3219
1777324313034,3367
1777324313036,3553
1777324313038,3720
1777324313040,3836
1777324313022,3859
1777324313024,3816
1777324313026,3717
1777324313028,3575
1777324313030,3494
1777324313032,3513
1777324313034,3619
1777324313036,3771
1777324313038,3897
1777324313040,4000
1777324313053,4064
1777324313055,4069
1777324313057,4006
1777324313059,3849
1777324313061,3829
1777324313063,3725
1777324313065,3841
1777324313067,4017
1777324313069,4095
1777324313071,4095
1777324313053,4095
1777324313055,4095
1777324313057,4095
1777324313059,4047
1777324313061,3971
1777324313063,4020
1777324313065,4095
1777324313067,4095
1777324313069,4095
1777324313071,4095
1777324313086,4095
1777324313088,4095
1777324313090,4095
1777324313092,4058
1777324313094,3906
1777324313096,3921
1777324313098,4048
1777324313100,4095
1777324313102,4095
1777324313104,4095
1777324313086,4095
1777324313088,4095
1777324313090,4095
1777324313092,4095
1777324313094,4092
1777324313096,4094
1777324313098,4095
1777324313100,4095
1777324313102,4095
1777324313104,4095
1777324313148,4095
1777324313150,4095
1777324313152,4095
1777324313154,4095
1777324313156,4095
1777324313158,4095
1777324313160,4095
1777324313162,4095
1777324313164,4095
1777324313166,4095
1777324313148,4095
1777324313150,4095
1777324313152,4095
1777324313154,4095
1777324313156,4095
1777324313158,4095
1777324313160,4095
1777324313162,4095
1777324313164,4095
1777324313166,4095
1777324313180,4095
1777324313182,4095
1777324313184,4095
1777324313186,4095
1777324313188,4095
1777324313190,4095
1777324313192,4095
1777324313194,4095
1777324313196,4095
1777324313198,4095
1777324313180,4095
1777324313182,4095
1777324313184,4095
1777324313186,4095
1777324313188,4095
1777324313190,4095
1777324313192,4095
1777324313194,4095
1777324313196,4095
1777324313198,4095
1777324313180,4095
1777324313182,4095
1777324313184,4095
1777324313186,4095
1777324313188,4095
1777324313190,4095
1777324313192,4095
1777324313194,4095
1777324313196,4095
1777324313198,4095
1777324313244,4095
1777324313246,4095
1777324313248,4095
1777324313250,4095
1777324313252,4095
1777324313254,4095
1777324313256,4095
1777324313258,4095
1777324313260,4095
1777324313262,4095
1777324313244,4095
1777324313246,4095
1777324313248,4095
1777324313250,4095
1777324313252,4095
1777324313254,4095
1777324313256,4095
1777324313258,4095
1777324313260,4095
1777324313262,4095
1777324313311,4095
1777324313313,4095
1777324313315,4095
1777324313317,4095
1777324313319,4095
1777324313321,4095
1777324313323,4095
1777324313325,4095
1777324313327,4095
1777324313329,4095
1777324313311,4095
1777324313313,4095
1777324313315,4095
1777324313317,4095
1777324313319,4095
1777324313321,4095
1777324313323,4095
1777324313325,4095
1777324313327,4095
1777324313329,4095
1777324313311,4095
1777324313313,4095
1777324313315,4095
1777324313317,4095
1777324313319,4095
1777324313321,4095
1777324313323,4095
1777324313325,4095
1777324313327,4095
1777324313329,4095
1777324313311,4095
1777324313313,4095
1777324313315,4095
1777324313317,4095
1777324313319,4094
1777324313321,4095
1777324313323,4095
1777324313325,4095
1777324313327,4095
1777324313329,4095
1777324313373,4095
1777324313375,4095
1777324313377,4095
1777324313379,4095
1777324313381,4095
1777324313383,4095
1777324313385,4095
1777324313387,4095
1777324313389,4095
1777324313391,4095
1777324313373,4095
1777324313375,4095
1777324313377,4095
1777324313379,4095
1777324313381,4079
1777324313383,4088
1777324313385,4095
1777324313387,4095
1777324313389,4095
1777324313391,4095
1777324313373,4095
1777324313375,4095
1777324313377,4094
1777324313379,3961
1777324313381,3791
1777324313383,3757
1777324313385,3858
1777324313387,4038
1777324313389,4095
1777324313391,4095
1777324313461,4095
1777324313463,4095
1777324313465,4033
1777324313467,3871
1777324313469,3886
1777324313471,3819
1777324313473,3910
1777324313475,4043
1777324313477,4095
1777324313479,4095
1777324313462,4093
1777324313464,4009
1777324313466,3841
1777324313468,3680
1777324313470,3602
1777324313472,3657
1777324313474,3805
1777324313476,3993
1777324313478,4093
1777324313480,4085
1777324313462,4044
1777324313464,3939
1777324313466,3766
1777324313468,3716
1777324313470,3550
1777324313472,3584
1777324313474,3707
1777324313476,3899
1777324313478,4063
1777324313480,4095
1777324313462,4081
1777324313464,3995
1777324313466,3844
1777324313468,3675
1777324313470,3562
1777324313472,3549
1777324313474,3617
1777324313476,3736
1777324313478,3843
1777324313480,3900
1777324313492,4032
1777324313494,3846
1777324313496,3781
1777324313498,3728
1777324313500,3563
1777324313502,3584
1777324313504,3696
1777324313506,3874
1777324313508,4010
1777324313510,4046
1777324313492,3991
1777324313494,3863
1777324313496,3701
1777324313498,3554
1777324313500,3479
1777324313502,3506
1777324313504,3613
1777324313506,3766
1777324313508,3895
1777324313510,3968
1777324313553,4019
1777324313555,3992
1777324313557,3842
1777324313559,3753
1777324313561,3526
1777324313563,3528
1777324313565,3641
1777324313567,3772
1777324313569,3861
1777324313571,3923
1777324313553,3944
1777324313555,3905
1777324313557,3789
1777324313559,3638
1777324313561,3525
1777324313563,3502
1777324313565,3579
1777324313567,3728
1777324313569,3867
1777324313571,3946
1777324313553,4053
1777324313555,3924
1777324313557,3862
1777324313559,3863
1777324313561,3723
1777324313563,3804
1777324313565,3964
1777324313567,4087
1777324313569,4095
1777324313571,4095
1777324313584,4095
1777324313586,4089
1777324313588,4010
1777324313590,3898
1777324313592,3837
1777324313594,3871
1777324313596,4009
1777324313598,4095
1777324313600,4095
1777324313602,4095
1777324313584,4095
1777324313586,4095
1777324313588,4095
1777324313590,4080
1777324313592,3956
1777324313594,3911
1777324313596,3991
1777324313598,4093
1777324313600,4095
1777324313602,4095
1777324313646,4095
1777324313648,4095
1777324313650,4095
1777324313652,4038
1777324313654,3929
1777324313656,3937
1777324313658,4053
1777324313660,4095
1777324313662,4095
1777324313664,4095
1777324313646,4095
1777324313648,4095
1777324313650,4079
1777324313652,4005
1777324313654,3843
1777324313656,3852
1777324313658,3958
1777324313660,4085
1777324313662,4095
1777324313664,4095
1777324313677,4095
1777324313679,4095
1777324313681,4087
1777324313683,3972
1777324313685,3845
1777324313687,3812
1777324313689,3869
1777324313691,3986
1777324313693,4080
1777324313695,4095
1777324313677,4095
1777324313679,4093
1777324313681,4020
1777324313683,3957
1777324313685,3725
1777324313687,3663
1777324313689,3714
1777324313691,3836
1777324313693,3958
1777324313695,4023
1777324313740,4032
1777324313742,3985
1777324313744,3884
1777324313746,3745
1777324313748,3625
1777324313750,3593
1777324313752,3659
1777324313754,3781
1777324313756,3918
1777324313758,4035
1777324313740,4093
1777324313742,4095
1777324313744,4095
1777324313746,4095
1777324313748,4095
1777324313750,4095
1777324313752,4095
1777324313754,4095
1777324313756,4095
1777324313758,4095
1777324313740,4095
1777324313742,4095
1777324313744,4095
1777324313746,4095
1777324313748,4095
1777324313750,4068
1777324313752,3776
1777324313754,3478
1777324313756,3235
1777324313758,3046
1777324313772,3025
1777324313774,2957
1777324313776,2802
1777324313778,2729
1777324313780,2807
1777324313782,2834
1777324313784,2989
1777324313786,3135
1777324313788,3245
1777324313790,3316
1777324313772,3354
1777324313774,3357
1777324313776,3337
1777324313778,3300
1777324313780,3256
1777324313782,3251
1777324313784,3301
1777324313786,3402
1777324313788,3506
1777324313790,3563
1777324313837,3792
1777324313839,3526
1777324313841,3460
1777324313843,3405
1777324313845,3224
1777324313847,3214
1777324313849,3278
1777324313851,3391
1777324313853,3497
1777324313855,3544
1777324313837,3540
1777324313839,3496
1777324313841,3417
1777324313843,3306
1777324313845,3208
1777324313847,3178
1777324313849,3228
1777324313851,3305
1777324313853,3362
1777324313855,3386
1777324313869,3469
1777324313871,3438
1777324313873,3249
1777324313875,3187
1777324313877,3014
1777324313879,3018
1777324313881,3094
1777324313883,3210
1777324313885,3325
1777324313887,3413
1777324313869,3430
1777324313871,3343
1777324313873,3198
1777324313875,3046
1777324313877,2939
1777324313879,2914
1777324313881,2956
1777324313883,3045
1777324313885,3131
1777324313887,3171
1777324313902,3342
1777324313904,3058
1777324313906,2949
1777324313908,2867
1777324313910,2678
1777324313912,2659
1777324313914,2728
1777324313916,2849
1777324313918,2930
1777324313920,2948
1777324313902,2919
1777324313904,2853
1777324313906,2734
1777324313908,2593
1777324313910,2485
1777324313912,2452
1777324313914,2505
1777324313916,2611
1777324313918,2714
1777324313920,2791
1777324313902,2921
1777324313904,2894
1777324313906,2672
1777324313908,2542
1777324313910,2305
1777324313912,2257
1777324313914,2310
1777324313916,2415
1777324313918,2513
1777324313920,2576
1777324313968,2584
1777324313970,2521
1777324313972,2411
1777324313974,2276
1777324313976,2160
1777324313978,2117
1777324313980,2177
1777324313982,2282
1777324313984,2341
1777324313986,2359
1777324313968,2532
1777324313970,2295
1777324313972,2220
1777324313974,2153
1777324313976,1938
1777324313978,1902
1777324313980,1949
1777324313982,2038
1777324313984,2134
1777324313986,2185
1777324314002,2137
1777324314004,1989
1777324314006,1792
1777324314008,1601
1777324314010,1473
1777324314012,1437
1777324314014,1503
1777324314016,1626
1777324314018,1721
1777324314020,1746
1777324314002,1825
1777324314004,1798
1777324314006,1643
1777324314008,1594
1777324314010,1407
1777324314012,1359
1777324314014,1373
1777324314016,1422
1777324314018,1464
1777324314020,1467
1777324314063,1436
1777324314065,1365
1777324314067,1258
1777324314069,1135
1777324314071,1056
1777324314073,1041
1777324314075,1105
1777324314077,1225
1777324314079,1309
1777324314081,1335
1777324314063,1525
1777324314065,1251
1777324314067,1176
1777324314069,1129
1777324314071,919
1777324314073,895
1777324314075,952
1777324314077,1057
1777324314079,1159
1777324314081,1215
1777324314117,1214
1777324314119,1175
1777324314121,1088
1777324314123,974
1777324314125,917
1777324314127,926
1777324314129,998
1777324314131,1114
1777324314133,1203
1777324314135,1237
1777324314117,1214
1777324314119,1377
1777324314121,1093
1777324314123,1027
1777324314125,923
1777324314127,887
1777324314129,941
1777324314131,1039
1777324314133,1118
1777324314135,1157
1777324314117,1160
1777324314119,1120
1777324314121,1040
1777324314123,942
1777324314125,848
1777324314127,821
1777324314129,868
1777324314131,941
1777324314133,1012
1777324314135,1062
1777324314168,1291
1777324314170,1065
1777324314172,1019
1777324314174,881
1777324314176,867
1777324314178,760
1777324314180,832
1777324314182,960
1777324314184,1086
1777324314186,1156
1777324314168,1162
1777324314170,1120
1777324314172,1024
1777324314174,913
1777324314176,839
1777324314178,848
1777324314180,943
1777324314182,1081
1777324314184,1199
1777324314186,1274
1777324314168,1289
1777324314170,1432
1777324314172,1079
1777324314174,921
1777324314176,801
1777324314178,737
1777324314180,808
1777324314182,929
1777324314184,1051
1777324314186,1127
1777324314168,1145
1777324314170,1114
1777324314172,1024
1777324314174,915
1777324314176,841
1777324314178,866
1777324314180,989
1777324314182,1131
1777324314184,1206
1777324314186,1200
1777324314217,1347
1777324314219,1033
1777324314221,954
1777324314223,915
1777324314225,755
1777324314227,755
1777324314229,830
1777324314231,954
1777324314233,1051
1777324314235,1104
1777324314217,1102
1777324314219,1052
1777324314221,942
1777324314223,818
1777324314225,734
1777324314227,735
1777324314229,817
1777324314231,921
1777324314233,1006
1777324314235,1055
1777324314265,1136
1777324314267,1098
1777324314269,925
1777324314271,865
1777324314273,661
1777324314275,636
1777324314277,681
1777324314279,774
1777324314281,870
1777324314283,947
1777324314265,991
1777324314267,989
1777324314269,903
1777324314271,761
1777324314273,640
1777324314275,602
1777324314277,665
1777324314279,780
1777324314281,875
1777324314283,923
1777324314265,1136
1777324314267,892
1777324314269,848
1777324314271,817
1777324314273,654
1777324314275,651
1777324314277,721
1777324314279,813
1777324314281,897
1777324314283,947
1777324314313,964
1777324314315,943
1777324314317,883
1777324314319,793
1777324314321,721
1777324314323,714
1777324314325,782
1777324314327,880
1777324314329,964
1777324314331,1024
1777324314313,1139
1777324314315,1114
1777324314317,946
1777324314319,899
1777324314321,742
1777324314323,757
1777324314325,841
1777324314327,975
1777324314329,1098
1777324314331,1165
1777324314359,1145
1777324314361,1065
1777324314363,953
1777324314365,833
1777324314367,781
1777324314369,793
1777324314371,882
1777324314373,1007
1777324314375,1105
1777324314377,1156
1777324314359,1362
1777324314361,1096
1777324314363,1027
1777324314365,968
1777324314367,789
1777324314369,774
1777324314371,843
1777324314373,947
1777324314375,1042
1777324314377,1105
1777324314403,1114
1777324314405,1074
1777324314407,983
1777324314409,852
1777324314411,735
1777324314413,690
1777324314415,735
1777324314417,842
1777324314419,932
1777324314421,990
1777324314403,1099
1777324314405,1080
1777324314407,927
1777324314409,886
1777324314411,700
1777324314413,671
1777324314415,738
1777324314417,854
1777324314419,957
1777324314421,1001
1777324314434,982
1777324314436,946
1777324314438,884
1777324314440,802
1777324314442,751
1777324314444,754
1777324314446,799
1777324314448,852
1777324314450,892
1777324314452,914
1777324314434,1074
1777324314436,899
1777324314438,797
1777324314440,772
1777324314442,597
1777324314444,605
1777324314446,698
1777324314448,831
1777324314450,959
1777324314452,1042
1777324314434,1038
1777324314436,983
1777324314438,881
1777324314440,756
1777324314442,677
1777324314444,671
1777324314446,759
1777324314448,893
1777324314450,987
1777324314452,1047
1777324314491,1175
1777324314493,1202
1777324314495,1126
1777324314497,1092
1777324314499,1251
1777324314501,1295
1777324314503,1530
1777324314505,1820
1777324314507,2095
1777324314509,2305
1777324314491,2419
1777324314493,2439
1777324314495,2348
1777324314497,2142
1777324314499,1886
1777324314501,1570
1777324314503,1249
1777324314505,939
1777324314507,642
1777324314509,389
1777324314538,344
1777324314540,77
1777324314542,12
1777324314544,5
1777324314546,15
1777324314548,13
1777324314550,68
1777324314552,208
1777324314554,338
1777324314556,445
1777324314538,507
1777324314540,524
1777324314542,470
1777324314544,368
1777324314546,286
1777324314548,270
1777324314550,338
1777324314552,452
1777324314554,563
1777324314556,643
1777324314604,760
1777324314606,741
1777324314608,580
1777324314610,529
1777324314612,361
1777324314614,349
1777324314616,406
1777324314618,514
1777324314620,616
1777324314622,689
1777324314604,689
1777324314606,623
1777324314608,509
1777324314610,374
1777324314612,273
1777324314614,249
1777324314616,326
1777324314618,447
1777324314620,550
1777324314622,597
1777324314625,809
1777324314627,562
1777324314629,510
1777324314631,432
1777324314633,227
1777324314635,174
1777324314637,210
1777324314639,300
1777324314641,398
1777324314643,469
1777324314625,491
1777324314627,470
1777324314629,407
1777324314631,313
1777324314633,234
1777324314635,217
1777324314637,265
1777324314639,350
1777324314641,429
1777324314643,481
1777324314625,579
1777324314627,554
1777324314629,408
1777324314631,383
1777324314633,253
1777324314635,265
1777324314637,313
1777324314639,393
1777324314641,490
1777324314643,550
1777324314660,548
1777324314662,476
1777324314664,384
1777324314666,284
1777324314668,207
1777324314670,173
1777324314672,225
1777324314674,355
1777324314676,488
1777324314678,582
1777324314660,825
1777324314662,598
1777324314664,552
1777324314666,513
1777324314668,326
1777324314670,307
1777324314672,371
1777324314674,491
1777324314676,603
1777324314678,661
1777324314725,660
1777324314727,595
1777324314729,474
1777324314731,358
1777324314733,296
1777324314735,316
1777324314737,409
1777324314739,548
1777324314741,664
1777324314743,716
1777324314725,802
1777324314727,785
1777324314729,643
1777324314731,601
1777324314733,404
1777324314735,370
1777324314737,412
1777324314739,496
1777324314741,572
1777324314743,616
1777324314758,609
1777324314760,538
1777324314762,426
1777324314764,275
1777324314766,158
1777324314768,110
1777324314770,137
1777324314772,219
1777324314774,294
1777324314776,351
1777324314758,568
1777324314760,319
1777324314762,255
1777324314764,85
1777324314766,32
1777324314768,15
1777324314770,60
1777324314772,184
1777324314774,304
1777324314776,366
1777324314794,338
1777324314796,235
1777324314798,101
1777324314800,11
1777324314802,15
1777324314804,16
1777324314806,22
1777324314808,108
1777324314810,212
1777324314812,282
1777324314794,301
1777324314796,466
1777324314798,235
1777324314800,92
1777324314802,41
1777324314804,43
1777324314806,118
1777324314808,238
1777324314810,374
1777324314812,482
1777324314794,516
1777324314796,473
1777324314798,377
1777324314800,261
1777324314802,177
1777324314804,161
1777324314806,233
1777324314808,362
1777324314810,484
1777324314812,560
1777324314854,765
1777324314856,511
1777324314858,436
1777324314860,276
1777324314862,228
1777324314864,165
1777324314866,248
1777324314868,375
1777324314870,488
1777324314872,564
1777324314854,583
1777324314856,550
1777324314858,468
1777324314860,339
1777324314862,221
1777324314864,176
1777324314866,212
1777324314868,311
1777324314870,415
1777324314872,474
1777324314885,584
1777324314887,578
1777324314889,454
1777324314891,396
1777324314893,216
1777324314895,178
1777324314897,220
1777324314899,325
1777324314901,447
1777324314903,540
1777324314885,593
1777324314887,583
1777324314889,513
1777324314891,418
1777324314893,351
1777324314895,362
1777324314897,458
1777324314899,585
1777324314901,691
1777324314903,758
1777324314950,983
1777324314952,690
1777324314954,603
1777324314956,532
1777324314958,343
1777324314960,347
1777324314962,441
1777324314964,585
1777324314966,706
1777324314968,778
1777324314950,781
1777324314952,732
1777324314954,646
1777324314956,537
1777324314958,455
1777324314960,450
1777324314962,527
1777324314964,645
1777324314966,752
1777324314968,828
1777324314981,954
1777324314983,959
1777324314985,823
1777324314987,777
1777324314989,587
1777324314991,575
1777324314993,649
1777324314995,761
1777324314997,849
1777324314999,896
1777324314981,892
1777324314983,848
1777324314985,778
1777324314987,700
1777324314989,655
1777324314991,647
1777324314993,673
1777324314995,727
1777324314997,788
1777324314999,828
1777324314981,1051
1777324314983,813
1777324314985,789
1777324314987,775
1777324314989,615
1777324314991,613
1777324314993,678
1777324314995,790
1777324314997,899
1777324314999,982
1777324315019,1017
1777324315021,979
1777324315023,877
1777324315025,754
1777324315027,672
1777324315029,653
1777324315031,705
1777324315033,808
1777324315035,926
1777324315037,1013
1777324315019,1144
1777324315021,1139
1777324315023,1005
1777324315025,998
1777324315027,845
1777324315029,851
1777324315031,896
1777324315033,987
1777324315035,1075
1777324315037,1125
1777324315076,1136
1777324315078,1099
1777324315080,1029
1777324315082,934
1777324315084,880
1777324315086,892
1777324315088,986
1777324315090,1121
1777324315092,1252
1777324315094,1340
1777324315076,1569
1777324315078,1308
1777324315080,1255
1777324315082,1217
1777324315084,1011
1777324315086,989
1777324315088,1060
1777324315090,1189
1777324315092,1320
1777324315094,1417
1777324315110,1455
1777324315112,1444
1777324315114,1385
1777324315116,1286
1777324315118,1206
1777324315120,1188
1777324315122,1218
1777324315124,1291
1777324315126,1366
1777324315128,1424
1777324315110,1561
1777324315112,1601
1777324315114,1481
1777324315116,1421
1777324315118,1183
1777324315120,1134
1777324315122,1179
1777324315124,1292
1777324315126,1412
1777324315128,1486
1777324315204,1502
1777324315206,1457
1777324315208,1378
1777324315210,1272
1777324315212,1228
1777324315214,1254
1777324315216,1325
1777324315218,1422
1777324315220,1521
1777324315222,1586
1777324315204,1662
1777324315206,1706
1777324315208,1524
1777324315210,1510
1777324315212,1351
1777324315214,1334
1777324315216,1376
1777324315218,1470
1777324315220,1584
1777324315222,1669
1777324315204,1698
1777324315206,1673
1777324315208,1590
1777324315210,1479
1777324315212,1406
1777324315214,1421
1777324315216,1525
1777324315218,1675
1777324315220,1781
1777324315222,1828
1777324315204,1931
1777324315206,1883
1777324315208,1728
1777324315210,1702
1777324315212,1535
1777324315214,1529
1777324315216,1601
1777324315218,1718
1777324315220,1829
1777324315222,1901
1777324315204,1939
1777324315206,1920
1777324315208,1860
1777324315210,1770
1777324315212,1691
1777324315214,1686
1777324315216,1749
1777324315218,1852
1777324315220,1963
1777324315222,2044
1777324315244,2274
1777324315246,2014
1777324315248,1958
1777324315250,1914
1777324315252,1741
1777324315254,1747
1777324315256,1826
1777324315258,1929
1777324315260,2006
1777324315262,2059
1777324315244,2062
1777324315246,2014
1777324315248,1943
1777324315250,1849
1777324315252,1780
1777324315254,1779
1777324315256,1853
1777324315258,1993
1777324315260,2141
1777324315262,2243
1777324315298,2376
1777324315300,2362
1777324315302,2205
1777324315304,2149
1777324315306,1962
1777324315308,1925
1777324315310,1961
1777324315312,2069
1777324315314,2190
1777324315316,2266
1777324315298,2290
1777324315300,2250
1777324315302,2169
1777324315304,2059
1777324315306,1963
1777324315308,1936
1777324315310,1997
1777324315312,2117
1777324315314,2224
1777324315316,2287
1777324315334,2499
1777324315336,2250
1777324315338,2162
1777324315340,2101
1777324315342,1923
1777324315344,1932
1777324315346,2013
1777324315348,2175
1777324315350,2357
1777324315352,2509
1777324315334,2608
1777324315336,2658
1777324315338,2708
1777324315340,2780
1777324315342,2896
1777324315344,3073
1777324315346,3329
1777324315348,3621
1777324315350,3869
1777324315352,4035
1777324315334,4089
1777324315336,4013
1777324315338,3777
1777324315340,3498
1777324315342,3036
1777324315344,2706
1777324315346,2454
1777324315348,2284
1777324315350,2179
1777324315352,2102
1777324315395,2038
1777324315397,1961
1777324315399,1875
1777324315401,1772
1777324315403,1699
1777324315405,1709
1777324315407,1815
1777324315409,1984
1777324315411,2153
1777324315413,2283
1777324315395,2557
1777324315397,2379
1777324315399,2385
1777324315401,2410
1777324315403,2265
1777324315405,2273
1777324315407,2357
1777324315409,2487
1777324315411,2603
1777324315413,2665
1777324315428,2683
1777324315430,2648
1777324315432,2546
1777324315434,2422
1777324315436,2333
1777324315438,2333
1777324315440,2411
1777324315442,2528
1777324315444,2649
1777324315446,2736
1777324315428,2851
1777324315430,2808
1777324315432,2641
1777324315434,2593
1777324315436,2426
1777324315438,2422
1777324315440,2497
1777324315442,2616
1777324315444,2725
1777324315446,2792
1777324315469,2792
1777324315471,2731
1777324315473,2646
1777324315475,2551
1777324315477,2481
1777324315479,2464
1777324315481,2502
1777324315483,2605
1777324315485,2717
1777324315487,2804
1777324315469,3039
1777324315471,2807
1777324315473,2748
1777324315475,2701
1777324315477,2523
1777324315479,2519
1777324315481,2588
1777324315483,2696
1777324315485,2809
1777324315487,2885
1777324315525,2902
1777324315527,2866
1777324315529,2804
1777324315531,2730
1777324315533,2654
1777324315535,2623
1777324315537,2660
1777324315539,2742
1777324315541,2824
1777324315543,2890
1777324315525,2926
1777324315527,3105
1777324315529,2877
1777324315531,2849
1777324315533,2722
1777324315535,2726
1777324315537,2804
1777324315539,2895
1777324315541,2984
1777324315543,3045
1777324315525,3057
1777324315527,3013
1777324315529,2922
1777324315531,2808
1777324315533,2743
1777324315535,2756
1777324315537,2836
1777324315539,2963
1777324315541,3082
1777324315543,3170
1777324315559,3424
1777324315561,3217
1777324315563,3169
1777324315565,2999
1777324315567,2948
1777324315569,2814
1777324315571,2860
1777324315573,2958
1777324315575,3059
1777324315577,3112
1777324315559,3107
1777324315561,3061
1777324315563,2963
1777324315565,2849
1777324315567,2761
1777324315569,2731
1777324315571,2780
1777324315573,2873
1777324315575,2961
1777324315577,2996
1777324315620,3070
1777324315622,3012
1777324315624,2804
1777324315626,2727
1777324315628,2518
1777324315630,2472
1777324315632,2490
1777324315634,2551
1777324315636,2617
1777324315638,2654
1777324315620,2650
1777324315622,2579
1777324315624,2449
1777324315626,2277
1777324315628,2136
1777324315630,2088
1777324315632,2131
1777324315634,2218
1777324315636,2302
1777324315638,2358
1777324315653,2568
1777324315655,2341
1777324315657,2274
1777324315659,2211
1777324315661,1988
1777324315663,1943
1777324315665,1988
1777324315667,2091
1777324315669,2186
1777324315671,2245
1777324315653,2253
1777324315655,2225
1777324315657,2151
1777324315659,2040
1777324315661,1923
1777324315663,1871
1777324315665,1914
1777324315667,2005
1777324315669,2101
1777324315671,2167
1777324315718,2294
1777324315720,2288
1777324315722,2115
1777324315724,2070
1777324315726,1862
1777324315728,1800
1777324315730,1825
1777324315732,1914
1777324315734,2007
1777324315736,2065
1777324315718,2086
1777324315720,2054
1777324315722,1991
1777324315724,1900
1777324315726,1809
1777324315728,1762
1777324315730,1784
1777324315732,1837
1777324315734,1903
1777324315736,1952
1777324315718,2164
1777324315720,1912
1777324315722,1860
1777324315724,1822
1777324315726,1615
1777324315728,1583
1777324315730,1638
1777324315732,1754
1777324315734,1879
1777324315736,1954
1777324315750,1977
1777324315752,1956
1777324315754,1902
1777324315756,1811
1777324315758,1721
1777324315760,1684
1777324315762,1750
1777324315764,1884
1777324315766,2024
1777324315768,2113
1777324315750,2227
1777324315752,2210
1777324315754,2061
1777324315756,2009
1777324315758,1801
1777324315760,1741
1777324315762,1773
1777324315764,1866
1777324315766,1981
1777324315768,2060
1777324315784,2108
1777324315786,2123
1777324315788,2075
1777324315790,1978
1777324315792,1907
1777324315794,1870
1777324315796,1884
1777324315798,1958
1777324315800,2057
1777324315802,2128
1777324315784,2348
1777324315786,2116
1777324315788,2054
1777324315790,1986
1777324315792,1781
1777324315794,1751
1777324315796,1823
1777324315798,1959
1777324315800,2091
1777324315802,2139
1777324315846,2119
1777324315848,2059
1777324315850,1960
1777324315852,1840
1777324315854,1761
1777324315856,1757
1777324315858,1848
1777324315860,2007
1777324315862,2135
1777324315864,2184
1777324315878,2276
1777324315880,2226
1777324315882,2055
1777324315884,2023
1777324315886,1858
1777324315888,1838
1777324315890,1875
1777324315892,1954
1777324315894,2062
1777324315896,2156
1777324315878,2218
1777324315880,2265
1777324315882,2288
1777324315884,2246
1777324315886,2156
1777324315888,2054
1777324315890,2022
1777324315892,2046
1777324315894,2097
1777324315896,2145
1777324315878,2351
1777324315880,2213
1777324315882,2176
1777324315884,2168
1777324315886,2009
1777324315888,2001
1777324315890,2079
1777324315892,2207
1777324315894,2347
1777324315896,2433
1777324315878,2456
1777324315880,2448
1777324315882,2382
1777324315884,2259
1777324315886,2152
1777324315888,2119
1777324315890,2168
1777324315892,2263
1777324315894,2359
1777324315896,2417
1777324315919,2516
1777324315921,2495
1777324315923,2349
1777324315925,2223
1777324315927,2242
1777324315929,2136
1777324315931,2220
1777324315933,2338
1777324315935,2443
1777324315937,2509
1777324315919,2540
1777324315921,2518
1777324315923,2415
1777324315925,2254
1777324315927,2119
1777324315929,2085
1777324315931,2170
1777324315933,2315
1777324315935,2430
1777324315937,2478
1777324315973,2640
1777324315975,2367
1777324315977,2308
1777324315979,2288
1777324315981,2089
1777324315983,2022
1777324315985,2059
1777324315987,2145
1777324315989,2242
1777324315991,2320
1777324315974,2358
1777324315976,2352
1777324315978,2277
1777324315980,2159
1777324315982,2063
1777324315984,2023
1777324315986,2066
1777324315988,2159
1777324315990,2263
1777324315992,2339
1777324316009,2461
1777324316011,2436
1777324316013,2289
1777324316015,2236
1777324316017,2054
1777324316019,2035
1777324316021,2106
1777324316023,2235
1777324316025,2353
1777324316027,2426
1777324316009,2439
1777324316011,2398
1777324316013,2316
1777324316015,2205
1777324316017,2103
1777324316019,2080
1777324316021,2148
1777324316023,2255
1777324316025,2323
1777324316027,2345
1777324316069,2547
1777324316071,2342
1777324316073,2312
1777324316075,2302
1777324316077,2119
1777324316079,2107
1777324316081,2185
1777324316083,2301
1777324316085,2401
1777324316087,2450
1777324316069,2464
1777324316071,2451
1777324316073,2395
1777324316075,2295
1777324316077,2223
1777324316079,2218
1777324316081,2294
1777324316083,2418
1777324316085,2546
1777324316087,2645
1777324316069,2794
1777324316071,2795
1777324316073,2669
1777324316075,2641
1777324316077,2457
1777324316079,2413
1777324316081,2451
1777324316083,2543
1777324316085,2653
1777324316087,2741
1777324316101,2781
1777324316103,2771
1777324316105,2739
1777324316107,2652
1777324316109,2549
1777324316111,2511
1777324316113,2567
1777324316115,2672
1777324316117,2763
1777324316119,2827
1777324316101,3062
1777324316103,2853
1777324316105,2804
1777324316107,2751
1777324316109,2565
1777324316111,2547
1777324316113,2615
1777324316115,2735
1777324316117,2865
1777324316119,2959
1777324316164,2987
1777324316166,2957
1777324316168,2879
1777324316170,2762
1777324316172,2661
1777324316174,2630
1777324316176,2696
1777324316178,2820
1777324316180,2937
1777324316182,2987
1777324316164,2978
1777324316166,3101
1777324316168,2851
1777324316170,2767
1777324316172,2675
1777324316174,2624
1777324316176,2677
1777324316178,2780
1777324316180,2893
1777324316182,2965
1777324316197,2977
1777324316199,2935
1777324316201,2851
1777324316203,2749
1777324316205,2675
1777324316207,2664
1777324316209,2708
1777324316211,2803
1777324316213,2915
1777324316215,3003
1777324316197,3204
1777324316199,2946
1777324316201,2894
1777324316203,2860
1777324316205,2701
1777324316207,2679
1777324316209,2719
1777324316211,2817
1777324316213,2931
1777324316215,3010
1777324316234,3032
1777324316236,3024
1777324316238,2978
1777324316240,2874
1777324316242,2764
1777324316244,2720
1777324316246,2780
1777324316248,2898
1777324316250,3004
1777324316252,3075
1777324316234,3088
1777324316236,3251
1777324316238,3023
1777324316240,2969
1777324316242,2831
1777324316244,2815
1777324316246,2910
1777324316248,3044
1777324316250,3136
1777324316252,3165
1777324316234,3137
1777324316236,3081
1777324316238,3013
1777324316240,2926
1777324316242,2840
1777324316244,2802
1777324316246,2843
1777324316248,2948
1777324316250,3071
1777324316252,3162
1777324316294,3397
1777324316296,3127
1777324316298,3019
1777324316300,2835
1777324316302,2804
1777324316304,2662
1777324316306,2703
1777324316308,2818
1777324316310,2937
1777324316312,3008
1777324316294,3028
1777324316296,3009
1777324316298,2946
1777324316300,2830
1777324316302,2707
1777324316304,2640
1777324316306,2662
1777324316308,2751
1777324316310,2854
1777324316312,2915
1777324316327,3007
1777324316329,2990
1777324316331,2833
1777324316333,2788
1777324316335,2592
1777324316337,2539
1777324316339,2564
1777324316341,2659
1777324316343,2776
1777324316345,2873
1777324316327,2924
1777324316329,2904
1777324316331,2806
1777324316333,2653
1777324316335,2518
1777324316337,2459
1777324316339,2510
1777324316341,2638
1777324316343,2754
1777324316345,2787
1777324316391,2951
1777324316393,2689
1777324316395,2629
1777324316397,2601
1777324316399,2459
1777324316401,2470
1777324316403,2516
1777324316405,2594
1777324316407,2669
1777324316409,2714
1777324316391,2714
1777324316393,2689
1777324316395,2641
1777324316397,2545
1777324316399,2448
1777324316401,2390
1777324316403,2418
1777324316405,2514
1777324316407,2636
1777324316409,2750
1777324316424,2930
1777324316426,3021
1777324316428,2989
1777324316430,3092
1777324316432,3052
1777324316434,3188
1777324316436,3422
1777324316438,3730
1777324316440,4031
1777324316442,4095
1777324316424,4095
1777324316426,4095
1777324316428,4057
1777324316430,3736
1777324316432,3347
1777324316434,2988
1777324316436,2701
1777324316438,2478
1777324316440,2306
1777324316442,2179
1777324316424,2269
1777324316426,1973
1777324316428,1891
1777324316430,1836
1777324316432,1636
1777324316434,1607
1777324316436,1674
1777324316438,1820
1777324316440,1991
1777324316442,2129
1777324316459,2205
1777324316461,2219
1777324316463,2190
1777324316465,2103
1777324316467,2024
1777324316469,2017
1777324316471,2088
1777324316473,2177
1777324316475,2246
1777324316477,2290
1777324316459,2387
1777324316461,2378
1777324316463,2212
1777324316465,2156
1777324316467,1968
1777324316469,1913
1777324316471,1946
1777324316473,2049
1777324316475,2180
1777324316477,2298
1777324316519,2369
1777324316521,2337
1777324316523,2232
1777324316525,2087
1777324316527,1965
1777324316529,1917
1777324316531,1963
1777324316533,2068
1777324316535,2172
1777324316537,2241
1777324316520,2458
1777324316522,2262
1777324316524,2239
1777324316526,2193
1777324316528,1997
1777324316530,1937
1777324316532,1971
1777324316534,2070
1777324316536,2175
1777324316538,2255
1777324316551,2289
1777324316553,2271
1777324316555,2213
1777324316557,2113
1777324316559,2025
1777324316561,2015
1777324316563,2105
1777324316565,2279
1777324316567,2433
1777324316569,2494
1777324316551,2551
1777324316553,2509
1777324316555,2351
1777324316557,2315
1777324316559,2144
1777324316561,2110
1777324316563,2168
1777324316565,2314
1777324316567,2481
1777324316569,2573
1777324316616,2580
1777324316618,2534
1777324316620,2469
1777324316622,2381
1777324316624,2324
1777324316626,2322
1777324316628,2357
1777324316630,2404
1777324316632,2476
1777324316634,2546
1777324316616,2734
1777324316618,2628
1777324316620,2558
1777324316622,2538
1777324316624,2386
1777324316626,2364
1777324316628,2427
1777324316630,2553
1777324316632,2675
1777324316634,2752
1777324316616,2781
1777324316618,2775
1777324316620,2719
1777324316622,2615
1777324316624,2520
1777324316626,2478
1777324316628,2524
1777324316630,2641
1777324316632,2754
1777324316634,2825
1777324316647,2934
1777324316649,2933
1777324316651,2780
1777324316653,2648
1777324316655,2629
1777324316657,2517
1777324316659,2541
1777324316661,2611
1777324316663,2690
1777324316665,2739
1777324316647,2734
1777324316649,2679
1777324316651,2586
1777324316653,2458
1777324316655,2339
1777324316657,2282
1777324316659,2314
1777324316661,2420
1777324316663,2542
1777324316665,2620
1777324316684,2816
1777324316686,2529
1777324316688,2437
1777324316690,2336
1777324316692,2120
1777324316694,2068
1777324316696,2110
1777324316698,2204
1777324316700,2287
1777324316702,2345
1777324316684,2369
1777324316686,2365
1777324316688,2306
1777324316690,2181
1777324316692,2068
1777324316694,2024
1777324316696,2064
1777324316698,2170
1777324316700,2272
1777324316702,2347
1777324316742,2463
1777324316744,2452
1777324316746,2305
1777324316748,2248
1777324316750,2056
1777324316752,2000
1777324316754,2038
1777324316756,2159
1777324316758,2284
1777324316760,2375
1777324316742,2420
1777324316744,2406
1777324316746,2350
1777324316748,2241
1777324316750,2140
1777324316752,2096
1777324316754,2133
1777324316756,2241
1777324316758,2353
1777324316760,2429
1777324316774,2665
1777324316776,2458
1777324316778,2433
1777324316780,2406
1777324316782,2228
1777324316784,2202
1777324316786,2255
1777324316788,2376
1777324316790,2508
1777324316792,2599
1777324316774,2628
1777324316776,2604
1777324316778,2552
1777324316780,2462
1777324316782,2371
1777324316784,2338
1777324316786,2385
1777324316788,2495
1777324316790,2619
1777324316792,2719
1777324316774,2865
1777324316776,2877
1777324316778,2763
1777324316780,2750
1777324316782,2574
1777324316784,2494
1777324316786,2509
1777324316788,2615
1777324316790,2745
1777324316792,2852
1777324316838,2929
1777324316840,2959
1777324316842,2918
1777324316844,2782
1777324316846,2649
1777324316848,2586
1777324316850,2629
1777324316852,2741
1777324316854,2841
1777324316856,2903
1777324316838,3122
1777324316840,2904
1777324316842,2896
1777324316844,2886
1777324316846,2739
1777324316848,2760
1777324316850,2876
1777324316852,3000
1777324316854,3057
1777324316856,3072
1777324316869,3066
1777324316871,3038
1777324316873,2986
1777324316875,2897
1777324316877,2824
1777324316879,2821
1777324316881,2893
1777324316883,3025
1777324316885,3146
1777324316887,3210
1777324316869,3310
1777324316871,3291
1777324316873,3135
1777324316875,3102
1777324316877,2924
1777324316879,2896
1777324316881,2946
1777324316883,3039
1777324316885,3148
1777324316887,3222
1777324316909,3247
1777324316911,3219
1777324316913,3166
1777324316915,3086
1777324316917,3010
1777324316919,2974
1777324316921,3008
1777324316923,3106
1777324316925,3199
1777324316927,3256
1777324316909,3485
1777324316911,3262
1777324316913,3243
1777324316915,3209
1777324316917,3014
1777324316919,2968
1777324316921,3015
1777324316923,3130
1777324316925,3251
1777324316927,3329
1777324316965,3370
1777324316967,3347
1777324316969,3267
1777324316971,3141
1777324316973,3024
1777324316975,2965
1777324316977,2996
1777324316979,3107
1777324316981,3239
1777324316983,3332
1777324316965,3373
1777324316967,3580
1777324316969,3335
1777324316971,3256
1777324316973,3075
1777324316975,3001
1777324316977,3029
1777324316979,3133
1777324316981,3260
1777324316983,3354
1777324316965,3395
1777324316967,3370
1777324316969,3297
1777324316971,3179
1777324316973,3061
1777324316975,3002
1777324316977,3024
1777324316979,3114
1777324316981,3225
1777324316983,3300
1777324316999,3544
1777324317001,3270
1777324317003,3230
1777324317005,3085
1777324317007,3084
1777324317009,2951
1777324317011,3015
1777324317013,3172
1777324317015,3346
1777324317017,3417
1777324316999,3407
1777324317001,3359
1777324317003,3303
1777324317005,3239
1777324317007,3179
1777324317009,3132
1777324317011,3119
1777324317013,3151
1777324317015,3205
1777324317017,3240
1777324317062,3354
1777324317064,3382
1777324317066,3286
1777324317068,3302
1777324317070,3145
1777324317072,3141
1777324317074,3229
1777324317076,3403
1777324317078,3601
1777324317080,3714
1777324317062,3713
1777324317064,3660
1777324317066,3554
1777324317068,3405
1777324317070,3251
1777324317072,3166
1777324317074,3178
1777324317076,3261
1777324317078,3366
1777324317080,3454
1777324317094,3725
1777324317096,3513
1777324317098,3502
1777324317100,3480
1777324317102,3309
1777324317104,3301
1777324317106,3380
1777324317108,3521
1777324317110,3686
1777324317112,3814
1777324317094,3881
1777324317096,3874
1777324317098,3804
1777324317100,3691
1777324317102,3581
1777324317104,3547
1777324317106,3604
1777324317108,3723
1777324317110,3850
1777324317112,3936
1777324317134,4010
1777324317136,3999
1777324317138,3899
1777324317140,3885
1777324317142,3675
1777324317144,3629
1777324317146,3690
1777324317148,3840
1777324317150,4003
1777324317152,4061
1777324317134,4050
1777324317136,4002
1777324317138,3943
1777324317140,3838
1777324317142,3721
1777324317144,3659
1777324317146,3688
1777324317148,3785
1777324317150,3924
1777324317152,4035
1777324317134,4089
1777324317136,4067
1777324317138,3996
1777324317140,3948
1777324317142,3747
1777324317144,3695
1777324317146,3737
1777324317148,3850
1777324317150,3990
1777324317152,4086
1777324317190,4095
1777324317192,4062
1777324317194,3967
1777324317196,3865
1777324317198,3774
1777324317200,3708
1777324317202,3701
1777324317204,3771
1777324317206,3871
1777324317208,3933
1777324317190,3995
1777324317192,3978
1777324317194,3876
1777324317196,3848
1777324317198,3633
1777324317200,3589
1777324317202,3640
1777324317204,3758
1777324317206,3902
1777324317208,3988
1777324317224,4009
1777324317226,3978
1777324317228,3917
1777324317230,3813
1777324317232,3687
1777324317234,3632
1777324317236,3683
1777324317238,3783
1777324317240,3877
1777324317242,3943
1777324317224,4061
1777324317226,3956
1777324317228,3890
1777324317230,3868
1777324317232,3635
1777324317234,3582
1777324317236,3622
1777324317238,3729
1777324317240,3860
1777324317242,3958
1777324317287,4004
1777324317289,3980
1777324317291,3890
1777324317293,3774
1777324317295,3678
1777324317297,3639
1777324317299,3679
1777324317301,3808
1777324317303,3971
1777324317305,4087
1777324317287,4095
1777324317289,4095
1777324317291,4091
1777324317293,4038
1777324317295,3809
1777324317297,3683
1777324317299,3694
1777324317301,3797
1777324317303,3929
1777324317305,4032
1777324317318,4085
1777324317320,4076
1777324317322,4016
1777324317324,3908
1777324317326,3790
1777324317328,3729
1777324317330,3773
1777324317332,3900
1777324317334,4050
1777324317336,4094
1777324317318,4095
1777324317320,4069
1777324317322,3955
1777324317324,3907
1777324317326,3691
1777324317328,3652
1777324317330,3718
1777324317332,3888
1777324317334,4067
1777324317336,4095
1777324317318,4095
1777324317320,4095
1777324317322,4066
1777324317324,3925
1777324317326,3783
1777324317328,3724
1777324317330,3764
1777324317332,3879
1777324317334,4033
1777324317336,4095
1777324317359,4095
1777324317361,4095
1777324317363,4049
1777324317365,3893
1777324317367,3826
1777324317369,3656
1777324317371,3701
1777324317373,3840
1777324317375,4012
1777324317377,4092
1777324317359,4094
1777324317361,4076
1777324317363,4017
1777324317365,3904
1777324317367,3750
1777324317369,3629
1777324317371,3626
1777324317373,3722
1777324317375,3842
1777324317377,3933
1777324317415,4056
1777324317417,3934
1777324317419,3884
1777324317421,3878
1777324317423,3702
1777324317425,3714
1777324317427,3849
1777324317429,4064
1777324317431,4095
1777324317433,4095
1777324317415,4095
1777324317417,4095
1777324317419,4095
1777324317421,4095
1777324317423,4095
1777324317425,4095
1777324317427,4095
1777324317429,4095
1777324317431,4095
1777324317433,4095
1777324317449,4095
1777324317451,4095
1777324317453,4095
1777324317455,4095
1777324317457,3948
1777324317459,3458
1777324317461,3104
1777324317463,2952
1777324317465,2945
1777324317467,2994
1777324317449,3065
1777324317451,3145
1777324317453,3205
1777324317455,3214
1777324317457,3174
1777324317459,3147
1777324317461,3174
1777324317463,3268
1777324317465,3384
1777324317467,3476
1777324317511,3768
1777324317513,3594
1777324317515,3637
1777324317517,3650
1777324317519,3442
1777324317521,3389
1777324317523,3445
1777324317525,3591
1777324317527,3743
1777324317529,3795
1777324317511,3770
1777324317513,3705
1777324317515,3614
1777324317517,3506
1777324317519,3406
1777324317521,3371
1777324317523,3432
1777324317525,3567
1777324317527,3740
1777324317529,3880
1777324317511,3988
1777324317513,3958
1777324317515,3803
1777324317517,3679
1777324317519,3405
1777324317521,3302
1777324317523,3308
1777324317525,3395
1777324317527,3497
1777324317529,3566
1777324317567,3621
1777324317569,3646
1777324317571,3636
1777324317573,3552
1777324317575,3431
1777324317577,3332
1777324317579,3325
1777324317581,3422
1777324317583,3549
1777324317585,3622
1777324317567,3858
1777324317569,3610
1777324317571,3579
1777324317573,3552
1777324317575,3329
1777324317577,3275
1777324317579,3327
1777324317581,3458
1777324317583,3579
1777324317585,3652
1777324317593,3700
1777324317595,3709
1777324317597,3633
1777324317599,3486
1777324317601,3324
1777324317603,3248
1777324317605,3280
1777324317607,3385
1777324317609,3512
1777324317611,3584
1777324317593,3711
1777324317595,3713
1777324317597,3585
1777324317599,3568
1777324317601,3393
1777324317603,3345
1777324317605,3379
1777324317607,3481
1777324317609,3602
1777324317611,3692
1777324317639,3749
1777324317641,3772
1777324317643,3732
1777324317645,3624
1777324317647,3511
1777324317649,3461
1777324317651,3503
1777324317653,3617
1777324317655,3754
1777324317657,3863
1777324317639,4048
1777324317641,3967
1777324317643,3964
1777324317645,3930
1777324317647,3666
1777324317649,3532
1777324317651,3512
1777324317653,3599
1777324317655,3711
1777324317657,3789
1777324317674,3817
1777324317676,3799
1777324317678,3725
1777324317680,3600
1777324317682,3457
1777324317684,3376
1777324317686,3394
1777324317688,3452
1777324317690,3508
1777324317692,3527
1777324317674,3518
1777324317676,3677
1777324317678,3385
1777324317680,3297
1777324317682,3185
1777324317684,3087
1777324317686,3086
1777324317688,3135
1777324317690,3211
1777324317692,3272
1777324317674,3288
1777324317676,3252
1777324317678,3174
1777324317680,3076
1777324317682,2998
1777324317684,2947
1777324317686,2936
1777324317688,2977
1777324317690,3047
1777324317692,3094
1777324317735,3269
1777324317737,3022
1777324317739,2991
1777324317741,2880
1777324317743,2856
1777324317745,2702
1777324317747,2712
1777324317749,2792
1777324317751,2900
1777324317753,2986
1777324317735,3035
1777324317737,3050
1777324317739,2995
1777324317741,2849
1777324317743,2682
1777324317745,2560
1777324317747,2540
1777324317749,2612
1777324317751,2716
1777324317753,2789
1777324317770,2909
1777324317772,2918
1777324317774,2798
1777324317776,2746
1777324317778,2522
1777324317780,2437
1777324317782,2435
1777324317784,2509
1777324317786,2616
1777324317788,2696
1777324317770,2741
1777324317772,2740
1777324317774,2679
1777324317776,2573
1777324317778,2447
1777324317780,2334
1777324317782,2311
1777324317784,2366
1777324317786,2453
1777324317788,2536
1777324317824,2781
1777324317826,2591
1777324317828,2561
1777324317830,2534
1777324317832,2336
1777324317834,2267
1777324317836,2280
1777324317838,2380
1777324317840,2496
1777324317842,2586
1777324317824,2632
1777324317826,2639
1777324317828,2596
1777324317830,2473
1777324317832,2314
1777324317834,2206
1777324317836,2211
1777324317838,2295
1777324317840,2414
1777324317842,2513
1777324317907,2643
1777324317909,2643
1777324317911,2521
1777324317913,2482
1777324317915,2303
1777324317917,2257
1777324317919,2293
1777324317921,2396
1777324317923,2494
1777324317925,2532
1777324317907,2516
1777324317909,2444
1777324317911,2339
1777324317913,2217
1777324317915,2104
1777324317917,2046
1777324317919,2091
1777324317921,2234
1777324317923,2391
1777324317925,2461
1777324317907,2621
1777324317909,2358
1777324317911,2299
1777324317913,2232
1777324317915,2021
1777324317917,1919
1777324317919,1920
1777324317921,2001
1777324317923,2121
1777324317925,2243
1777324317908,2327
1777324317910,2334
1777324317912,2262
1777324317914,2137
1777324317916,2003
1777324317918,1879
1777324317920,1835
1777324317922,1893
1777324317924,2001
1777324317926,2092
1777324317908,2228
1777324317910,2245
1777324317912,2133
1777324317914,2121
1777324317916,1951
1777324317918,1890
1777324317920,1893
1777324317922,1958
1777324317924,2034
1777324317926,2078
1777324317969,2092
1777324317971,2083
1777324317973,2046
1777324317975,1951
1777324317977,1838
1777324317979,1743
1777324317981,1715
1777324317983,1764
1777324317985,1846
1777324317987,1916
1777324317969,2137
1777324317971,1931
1777324317973,1919
1777324317975,1931
1777324317977,1736
1777324317979,1675
1777324317981,1702
1777324317983,1809
1777324317985,1922
1777324317987,1979
1777324318032,1967
1777324318034,1935
1777324318036,1858
1777324318038,1750
1777324318040,1639
1777324318042,1576
1777324318044,1588
1777324318046,1682
1777324318048,1823
1777324318050,1953
1777324318032,2113
1777324318034,2117
1777324318036,1956
1777324318038,1878
1777324318040,1651
1777324318042,1566
1777324318044,1573
1777324318046,1656
1777324318048,1764
1777324318050,1861
1777324318097,1892
1777324318099,1868
1777324318101,1819
1777324318103,1750
1777324318105,1666
1777324318107,1594
1777324318109,1584
1777324318111,1642
1777324318113,1718
1777324318115,1766
1777324318097,1950
1777324318099,1768
1777324318101,1708
1777324318103,1696
1777324318105,1521
1777324318107,1480
1777324318109,1525
1777324318111,1634
1777324318113,1749
1777324318115,1821
1777324318097,1820
1777324318099,1775
1777324318101,1703
1777324318103,1612
1777324318105,1512
1777324318107,1452
1777324318109,1486
1777324318111,1581
1777324318113,1690
1777324318115,1791
1777324318097,1943
1777324318099,1959
1777324318101,1820
1777324318103,1668
1777324318105,1647
1777324318107,1459
1777324318109,1462
1777324318111,1536
1777324318113,1637
1777324318115,1719
1777324318097,1756
1777324318099,1758
1777324318101,1731
1777324318103,1675
1777324318105,1600
1777324318107,1518
1777324318109,1480
1777324318111,1493
1777324318113,1553
1777324318115,1616
1777324318169,1855
1777324318171,1645
1777324318173,1639
1777324318175,1629
1777324318177,1412
1777324318179,1349
1777324318181,1373
1777324318183,1476
1777324318185,1607
1777324318187,1701
1777324318169,1737
1777324318171,1733
1777324318173,1673
1777324318175,1546
1777324318177,1408
1777324318179,1316
1777324318181,1314
1777324318183,1383
1777324318185,1492
1777324318187,1605
1777324318170,1664
1777324318172,1887
1777324318174,1695
1777324318176,1528
1777324318178,1530
1777324318180,1377
1777324318182,1385
1777324318184,1471
1777324318186,1595
1777324318188,1697
1777324318170,1742
1777324318172,1739
1777324318174,1705
1777324318176,1623
1777324318178,1522
1777324318180,1466
1777324318182,1447
1777324318184,1474
1777324318186,1523
1777324318188,1569
1777324318247,1799
1777324318249,1569
1777324318251,1582
1777324318253,1549
1777324318255,1362
1777324318257,1304
1777324318259,1312
1777324318261,1382
1777324318263,1474
1777324318265,1557
1777324318247,1599
1777324318249,1595
1777324318251,1547
1777324318253,1444
1777324318255,1342
1777324318257,1269
1777324318259,1251
1777324318261,1304
1777324318263,1383
1777324318265,1453
1777324318247,1519
1777324318249,1635
1777324318251,1467
1777324318253,1424
1777324318255,1250
1777324318257,1189
1777324318259,1194
1777324318261,1272
1777324318263,1376
1777324318265,1461
1777324318286,1501
1777324318288,1494
1777324318290,1451
1777324318292,1344
1777324318294,1230
1777324318296,1151
1777324318298,1153
1777324318300,1234
1777324318302,1354
1777324318304,1480
1777324318286,1763
1777324318288,1560
1777324318290,1551
1777324318292,1499
1777324318294,1299
1777324318296,1213
1777324318298,1205
1777324318300,1272
1777324318302,1366
1777324318304,1434
1777324318360,1462
1777324318362,1469
1777324318364,1473
1777324318366,1448
1777324318368,1420
1777324318370,1429
1777324318372,1537
1777324318374,1759
1777324318376,2047
1777324318378,2330
1777324318360,2580
1777324318362,2791
1777324318364,2711
1777324318366,2706
1777324318368,2530
1777324318370,2444
1777324318372,2370
1777324318374,2284
1777324318376,2159
1777324318378,1952
1777324318361,1654
1777324318363,1313
1777324318365,1001
1777324318367,740
1777324318369,533
1777324318371,419
1777324318373,423
1777324318375,529
1777324318377,658
1777324318379,753
1777324318361,1013
1777324318363,812
1777324318365,837
1777324318367,834
1777324318369,679
1777324318371,655
1777324318373,710
1777324318375,849
1777324318377,1029
1777324318379,1194
1777324318397,1279
1777324318399,1275
1777324318401,1218
1777324318403,1136
1777324318405,1052
1777324318407,991
1777324318409,983
1777324318411,1042
1777324318413,1127
1777324318415,1210
1777324318398,1266
1777324318400,1511
1777324318402,1331
1777324318404,1257
1777324318406,1189
1777324318408,1068
1777324318410,1069
1777324318412,1142
1777324318414,1251
1777324318416,1339
1777324318398,1367
1777324318400,1341
1777324318402,1296
1777324318404,1233
1777324318406,1141
1777324318408,1062
1777324318410,1053
1777324318412,1119
1777324318414,1212
1777324318416,1285
1777324318449,1529
1777324318451,1297
1777324318453,1309
1777324318455,1177
1777324318457,1194
1777324318459,1051
1777324318461,1056
1777324318463,1117
1777324318465,1205
1777324318467,1279
1777324318449,1314
1777324318451,1309
1777324318453,1279
1777324318455,1223
1777324318457,1135
1777324318459,1047
1777324318461,1029
1777324318463,1088
1777324318465,1169
1777324318467,1239
1777324318509,1319
1777324318511,1437
1777324318513,1261
1777324318515,1196
1777324318517,1098
1777324318519,1014
1777324318521,1027
1777324318523,1126
1777324318525,1263
1777324318527,1372
1777324318509,1426
1777324318511,1416
1777324318513,1359
1777324318515,1257
1777324318517,1162
1777324318519,1112
1777324318521,1128
1777324318523,1203
1777324318525,1296
1777324318527,1372
1777324318534,1647
1777324318536,1434
1777324318538,1467
1777324318540,1440
1777324318542,1254
1777324318544,1215
1777324318546,1250
1777324318548,1361
1777324318550,1461
1777324318552,1535
1777324318534,1573
1777324318536,1562
1777324318538,1509
1777324318540,1414
1777324318542,1303
1777324318544,1235
1777324318546,1254
1777324318548,1336
1777324318550,1425
1777324318552,1503
1777324318592,1585
1777324318594,1671
1777324318596,1452
1777324318598,1389
1777324318600,1141
1777324318602,1047
1777324318604,1018
1777324318606,1059
1777324318608,1142
1777324318610,1226
1777324318592,1272
1777324318594,1266
1777324318596,1210
1777324318598,1110
1777324318600,1005
1777324318602,909
1777324318604,861
1777324318606,880
1777324318608,937
1777324318610,981
1777324318592,1209
1777324318594,951
1777324318596,942
1777324318598,909
1777324318600,716
1777324318602,669
1777324318604,679
1777324318606,752
1777324318608,863
1777324318610,937
1777324318644,937
1777324318646,880
1777324318648,809
1777324318650,712
1777324318652,612
1777324318654,555
1777324318656,566
1777324318658,646
1777324318660,754
1777324318662,848
1777324318644,938
1777324318646,1052
1777324318648,889
1777324318650,841
1777324318652,630
1777324318654,541
1777324318656,514
1777324318658,575
1777324318660,691
1777324318662,793
1777324318676,836
1777324318678,815
1777324318680,749
1777324318682,637
1777324318684,512
1777324318686,445
1777324318688,468
1777324318690,562
1777324318692,669
1777324318694,759
1777324318676,1025
1777324318678,830
1777324318680,860
1777324318682,828
1777324318684,634
1777324318686,561
1777324318688,564
1777324318690,648
1777324318692,758
1777324318694,859
1777324318709,916
1777324318711,913
1777324318713,862
1777324318715,773
1777324318717,669
1777324318719,615
1777324318721,636
1777324318723,744
1777324318725,885
1777324318727,1005
1777324318709,1114
1777324318711,1244
1777324318713,1073
1777324318715,1048
1777324318717,842
1777324318719,763
1777324318721,745
1777324318723,817
1777324318725,933
1777324318727,1038
1777324318774,1092
1777324318776,1092
1777324318778,1050
1777324318780,961
1777324318782,858
1777324318784,809
1777324318786,822
1777324318788,895
1777324318790,994
1777324318792,1095
1777324318805,1303
1777324318807,1210
1777324318809,1125
1777324318811,1069
1777324318813,855
1777324318815,797
1777324318817,808
1777324318819,900
1777324318821,1020
1777324318823,1135
1777324318805,1220
1777324318807,1254
1777324318809,1201
1777324318811,1074
1777324318813,913
1777324318815,796
1777324318817,767
1777324318819,830
1777324318821,940
1777324318823,1063
1777324318805,1207
1777324318807,1382
1777324318809,1255
1777324318811,1135
1777324318813,1111
1777324318815,941
1777324318817,916
1777324318819,978
1777324318821,1087
1777324318823,1158
1777324318805,1181
1777324318807,1167
1777324318809,1131
1777324318811,1060
1777324318813,976
1777324318815,935
1777324318817,958
1777324318819,1055
1777324318821,1184
1777324318823,1276
1777324318869,1522
1777324318871,1285
1777324318873,1287
1777324318875,1250
1777324318877,1043
1777324318879,990
1777324318881,1005
1777324318883,1092
1777324318885,1202
1777324318887,1298
1777324318869,1354
1777324318871,1345
1777324318873,1274
1777324318875,1151
1777324318877,1008
1777324318879,904
1777324318881,851
1777324318883,878
1777324318885,948
1777324318887,1007
1777324318901,1063
1777324318903,1121
1777324318905,871
1777324318907,745
1777324318909,545
1777324318911,434
1777324318913,416
1777324318915,489
1777324318917,607
1777324318919,703
1777324318901,757
1777324318903,755
1777324318905,712
1777324318907,600
1777324318909,456
1777324318911,357
1777324318913,330
1777324318915,379
1777324318917,469
1777324318919,544
1777324318959,777
1777324318961,549
1777324318963,545
1777324318965,515
1777324318967,322
1777324318969,253
1777324318971,255
1777324318973,329
1777324318975,428
1777324318977,519
1777324318959,570
1777324318961,561
1777324318963,493
1777324318965,398
1777324318967,303
1777324318969,240
1777324318971,230
1777324318973,283
1777324318975,369
1777324318977,455
1777324318959,550
1777324318961,673
1777324318963,529
1777324318965,499
1777324318967,302
1777324318969,208
1777324318971,181
1777324318973,239
1777324318975,355
1777324318977,461
1777324319010,510
1777324319012,502
1777324319014,469
1777324319016,394
1777324319018,293
1777324319020,233
1777324319022,249
1777324319024,353
1777324319026,488
1777324319028,590
1777324319010,840
1777324319012,607
1777324319014,613
1777324319016,604
1777324319018,420
1777324319020,360
1777324319022,359
1777324319024,420
1777324319026,527
1777324319028,634
1777324319035,691
1777324319037,693
1777324319039,655
1777324319041,578
1777324319043,468
1777324319045,395
1777324319047,401
1777324319049,484
1777324319051,593
1777324319053,691
1777324319035,803
1777324319037,951
1777324319039,799
1777324319041,762
1777324319043,571
1777324319045,506
1777324319047,517
1777324319049,606
1777324319051,728
1777324319053,844
1777324319069,923
1777324319071,944
1777324319073,920
1777324319075,847
1777324319077,735
1777324319079,636
1777324319081,612
1777324319083,684
1777324319085,817
1777324319087,942
1777324319069,1210
1777324319071,1008
1777324319073,1050
1777324319075,1037
1777324319077,851
1777324319079,775
1777324319081,757
1777324319083,815
1777324319085,930
1777324319087,1043
1777324319132,1103
1777324319134,1110
1777324319136,1086
1777324319138,1045
1777324319140,970
1777324319142,891
1777324319144,851
1777324319146,877
1777324319148,936
1777324319150,998
1777324319132,1046
1777324319134,1277
1777324319136,1086
1777324319138,1009
1777324319140,951
1777324319142,836
1777324319144,840
1777324319146,919
1777324319148,1039
1777324319150,1159
1777324319132,1217
1777324319134,1203
1777324319136,1146
1777324319138,1063
1777324319140,952
1777324319142,870
1777324319144,863
1777324319146,932
1777324319148,1051
1777324319150,1171
1777324319164,1421
1777324319166,1301
1777324319168,1279
1777324319170,1174
1777324319172,1225
1777324319174,1086
1777324319176,1107
1777324319178,1200
1777324319180,1326
1777324319182,1386
1777324319164,1375
1777324319166,1320
1777324319168,1231
1777324319170,1144
1777324319172,1049
1777324319174,980
1777324319176,987
1777324319178,1082
1777324319180,1224
1777324319182,1350
1777324319228,1498
1777324319230,1509
1777324319232,1369
1777324319234,1347
1777324319236,1134
1777324319238,1046
1777324319240,1031
1777324319242,1089
1777324319244,1192
1777324319246,1284
1777324319228,1341
1777324319230,1370
1777324319232,1349
1777324319234,1288
1777324319236,1209
1777324319238,1155
1777324319240,1164
1777324319242,1242
1777324319244,1356
1777324319246,1447
1777324319294,1684
1777324319296,1446
1777324319298,1415
1777324319300,1396
1777324319302,1187
1777324319304,1131
1777324319306,1161
1777324319308,1272
1777324319310,1417
1777324319312,1547
1777324319294,1634
1777324319296,1651
1777324319298,1587
1777324319300,1494
1777324319302,1387
1777324319304,1326
1777324319306,1357
1777324319308,1453
1777324319310,1559
1777324319312,1642
1777324319294,1785
1777324319296,1804
1777324319298,1680
1777324319300,1678
1777324319302,1495
1777324319304,1440
1777324319306,1464
1777324319308,1587
1777324319310,1781
1777324319312,1957
1777324319296,2076
1777324319298,2151
1777324319300,2198
1777324319302,2232
1777324319304,2261
1777324319306,2321
1777324319308,2453
1777324319310,2655
1777324319312,2897
1777324319314,3126
1777324319296,3506
1777324319298,3356
1777324319300,3270
1777324319302,3097
1777324319304,2656
1777324319306,2247
1777324319308,1855
1777324319310,1568
1777324319312,1413
1777324319314,1343
1777324319356,1301
1777324319358,1259
1777324319360,1213
1777324319362,1159
1777324319364,1090
1777324319366,1058
1777324319368,1103
1777324319370,1225
1777324319372,1378
1777324319374,1519
1777324319356,1716
1777324319358,1795
1777324319360,1721
1777324319362,1745
1777324319364,1580
1777324319366,1536
1777324319368,1547
1777324319370,1616
1777324319372,1724
1777324319374,1827
1777324319388,1900
1777324319390,1932
1777324319392,1922
1777324319394,1869
1777324319396,1785
1777324319398,1708
1777324319400,1687
1777324319402,1739
1777324319404,1825
1777324319406,1921
1777324319388,2202
1777324319390,2022
1777324319392,2001
1777324319394,1981
1777324319396,1770
1777324319398,1699
1777324319400,1700
1777324319402,1774
1777324319404,1899
1777324319406,2020
1777324319453,2086
1777324319455,2101
1777324319457,2061
1777324319459,1994
1777324319461,1903
1777324319463,1836
1777324319465,1830
1777324319467,1899
1777324319469,2001
1777324319471,2093
1777324319453,2233
1777324319455,2277
1777324319457,2181
1777324319459,2204
1777324319461,2030
1777324319463,1963
1777324319465,1968
1777324319467,2054
1777324319469,2190
1777324319471,2310
1777324319484,2360
1777324319486,2349
1777324319488,2304
1777324319490,2236
1777324319492,2146
1777324319494,2069
1777324319496,2061
1777324319498,2122
1777324319500,2223
1777324319502,2325
1777324319484,2557
1777324319486,2514
1777324319488,2502
1777324319490,2490
1777324319492,2293
1777324319494,2211
1777324319496,2201
1777324319498,2269
1777324319500,2399
1777324319502,2532
1777324319484,2626
1777324319486,2674
1777324319488,2655
1777324319490,2597
1777324319492,2498
1777324319494,2416
1777324319496,2426
1777324319498,2523
1777324319500,2666
1777324319502,2750
1777324319519,2847
1777324319521,2808
1777324319523,2646
1777324319525,2515
1777324319527,2469
1777324319529,2326
1777324319531,2327
1777324319533,2400
1777324319535,2511
1777324319537,2618
1777324319519,2684
1777324319521,2696
1777324319523,2651
1777324319525,2560
1777324319527,2428
1777324319529,2313
1777324319531,2264
1777324319533,2288
1777324319535,2356
1777324319537,2426
1777324319581,2649
1777324319583,2446
1777324319585,2399
1777324319587,2359
1777324319589,2154
1777324319591,2069
1777324319593,2042
1777324319595,2060
1777324319597,2108
1777324319599,2160
1777324319612,2187
1777324319614,2165
1777324319616,2087
1777324319618,1971
1777324319620,1828
1777324319622,1708
1777324319624,1659
1777324319626,1693
1777324319628,1787
1777324319630,1892
1777324319612,2033
1777324319614,2040
1777324319616,1877
1777324319618,1822
1777324319620,1619
1777324319622,1558
1777324319624,1566
1777324319626,1628
1777324319628,1719
1777324319630,1810
1777324319612,1867
1777324319614,1878
1777324319616,1842
1777324319618,1763
1777324319620,1665
1777324319622,1592
1777324319624,1582
1777324319626,1649
1777324319628,1760
1777324319630,1872
1777324319677,2145
1777324319679,1958
1777324319681,1922
1777324319683,1910
1777324319685,1703
1777324319687,1629
1777324319689,1630
1777324319691,1702
1777324319693,1823
1777324319695,1951
1777324319677,2041
1777324319679,2062
1777324319681,2048
1777324319683,2010
1777324319685,1938
1777324319687,1841
1777324319689,1775
1777324319691,1775
1777324319693,1844
1777324319695,1949
1777324319677,2120
1777324319679,2180
1777324319681,2093
1777324319683,2145
1777324319685,1940
1777324319687,1869
1777324319689,1859
1777324319691,1916
1777324319693,2022
1777324319695,2134
1777324319708,2213
1777324319710,2231
1777324319712,2196
1777324319714,2122
1777324319716,2023
1777324319718,1950
1777324319720,1942
1777324319722,2012
1777324319724,2136
1777324319726,2255
1777324319708,2526
1777324319710,2343
1777324319712,2328
1777324319714,2322
1777324319716,2133
1777324319718,2069
1777324319720,2077
1777324319722,2162
1777324319724,2265
1777324319726,2343
1777324319744,2390
1777324319746,2411
1777324319748,2377
1777324319750,2301
1777324319752,2211
1777324319754,2150
1777324319756,2154
1777324319758,2219
1777324319760,2323
1777324319762,2416
1777324319744,2541
1777324319746,2552
1777324319748,2444
1777324319750,2430
1777324319752,2238
1777324319754,2155
1777324319756,2124
1777324319758,2165
1777324319760,2264
1777324319762,2370
1777324319804,2426
1777324319806,2442
1777324319808,2418
1777324319810,2361
1777324319812,2261
1777324319814,2175
1777324319816,2155
1777324319818,2226
1777324319820,2342
1777324319822,2443
1777324319804,2687
1777324319806,2495
1777324319808,2490
1777324319810,2500
1777324319812,2329
1777324319814,2255
1777324319816,2235
1777324319818,2280
1777324319820,2370
1777324319822,2453
1777324319835,2478
1777324319837,2476
1777324319839,2432
1777324319841,2350
1777324319843,2259
1777324319845,2203
1777324319847,2227
1777324319849,2326
1777324319851,2417
1777324319853,2475
1777324319835,2500
1777324319837,2695
1777324319839,2495
1777324319841,2491
1777324319843,2333
1777324319845,2235
1777324319847,2200
1777324319849,2263
1777324319851,2382
1777324319853,2501
1777324319835,2588
1777324319837,2627
1777324319839,2601
1777324319841,2521
1777324319843,2419
1777324319845,2339
1777324319847,2329
1777324319849,2402
1777324319851,2515
1777324319853,2624
1777324319901,2891
1777324319903,2723
1777324319905,2741
1777324319907,2653
1777324319909,2648
1777324319911,2495
1777324319913,2514
1777324319915,2590
1777324319917,2678
1777324319919,2756
1777324319901,2780
1777324319903,2768
1777324319905,2726
1777324319907,2670
1777324319909,2600
1777324319911,2544
1777324319913,2548
1777324319915,2633
1777324319917,2753
1777324319919,2852
1777324319932,2989
1777324319934,3000
1777324319936,2907
1777324319938,2908
1777324319940,2702
1777324319942,2593
1777324319944,2553
1777324319946,2596
1777324319948,2688
1777324319950,2788
1777324319932,2856
1777324319934,2881
1777324319936,2861
1777324319938,2805
1777324319940,2711
1777324319942,2627
1777324319944,2607
1777324319946,2664
1777324319948,2765
1777324319950,2875
1777324319969,3148
1777324319971,2971
1777324319973,2957
1777324319975,2956
1777324319977,2787
1777324319979,2712
1777324319981,2677
1777324319983,2726
1777324319985,2824
1777324319987,2942
1777324319969,3012
1777324319971,3029
1777324319973,2992
1777324319975,2928
1777324319977,2846
1777324319979,2775
1777324319981,2746
1777324319983,2784
1777324319985,2880
1777324319987,3004
1777324320028,3199
1777324320030,3268
1777324320032,3186
1777324320034,3192
1777324320036,2997
1777324320038,2928
1777324320040,2913
1777324320042,2950
1777324320044,3016
1777324320046,3099
1777324320028,3175
1777324320030,3186
1777324320032,3140
1777324320034,3071
1777324320036,2995
1777324320038,2925
1777324320040,2893
1777324320042,2927
1777324320044,3017
1777324320046,3137
1777324320028,3429
1777324320030,3257
1777324320032,3271
1777324320034,3282
1777324320036,3104
1777324320038,3026
1777324320040,2999
1777324320042,3053
1777324320044,3167
1777324320046,3288
1777324320060,3357
1777324320062,3368
1777324320064,3337
1777324320066,3252
1777324320068,3150
1777324320070,3075
1777324320072,3059
1777324320074,3117
1777324320076,3218
1777324320078,3320
1777324320060,3485
1777324320062,3523
1777324320064,3421
1777324320066,3443
1777324320068,3281
1777324320070,3203
1777324320072,3168
1777324320074,3213
1777324320076,3321
1777324320078,3430
1777324320124,3493
1777324320126,3515
1777324320128,3491
1777324320130,3423
1777324320132,3329
1777324320134,3264
1777324320136,3258
1777324320138,3311
1777324320140,3380
1777324320142,3447
1777324320124,3685
1777324320126,3476
1777324320128,3477
1777324320130,3484
1777324320132,3287
1777324320134,3207
1777324320136,3189
1777324320138,3247
1777324320140,3339
1777324320142,3441
1777324320156,3522
1777324320158,3551
1777324320160,3508
1777324320162,3422
1777324320164,3328
1777324320166,3250
1777324320168,3213
1777324320170,3274
1777324320172,3387
1777324320174,3524
1777324320156,3611
1777324320158,3835
1777324320160,3599
1777324320162,3487
1777324320164,3413
1777324320166,3252
1777324320168,3205
1777324320170,3219
1777324320172,3280
1777324320174,3373
1777324320194,3445
1777324320196,3476
1777324320198,3472
1777324320200,3424
1777324320202,3345
1777324320204,3274
1777324320206,3245
1777324320208,3294
1777324320210,3385
1777324320212,3478
1777324320194,3701
1777324320196,3599
1777324320198,3516
1777324320200,3458
1777324320202,3244
1777324320204,3161
1777324320206,3151
1777324320208,3221
1777324320210,3294
1777324320212,3361
1777324320194,3407
1777324320196,3438
1777324320198,3450
1777324320200,3432
1777324320202,3358
1777324320204,3263
1777324320206,3192
1777324320208,3170
1777324320210,3197
1777324320212,3264
1777324320252,3407
1777324320254,3420
1777324320256,3309
1777324320258,3192
1777324320260,3197
1777324320262,3025
1777324320264,3012
1777324320266,3078
1777324320268,3186
1777324320270,3303
1777324320252,3365
1777324320254,3351
1777324320256,3316
1777324320258,3262
1777324320260,3180
1777324320262,3081
1777324320264,3028
1777324320266,3061
1777324320268,3160
1777324320270,3292
1777324320284,3605
1777324320286,3416
1777324320288,3446
1777324320290,3428
1777324320292,3288
1777324320294,3185
1777324320296,3159
1777324320298,3210
1777324320300,3316
1777324320302,3452
1777324320285,3554
1777324320287,3599
1777324320289,3566
1777324320291,3468
1777324320293,3322
1777324320295,3191
1777324320297,3120
1777324320299,3138
1777324320301,3228
1777324320303,3371
1777324320349,3610
1777324320351,3763
1777324320353,3792
1777324320355,3924
1777324320357,3937
1777324320359,4013
1777324320361,4091
1777324320363,4095
1777324320365,4095
1777324320367,4095
1777324320349,4095
1777324320351,4095
1777324320353,4095
1777324320355,4095
1777324320357,4095
1777324320359,4095
1777324320361,4095
1777324320363,4095
1777324320365,4090
1777324320367,3847
1777324320381,3701
1777324320383,3215
1777324320385,3048
1777324320387,2933
1777324320389,2724
1777324320391,2658
1777324320393,2677
1777324320395,2774
1777324320397,2924
1777324320399,3074
1777324320381,3192
1777324320383,3259
1777324320385,3281
1777324320387,3265
1777324320389,3216
1777324320391,3158
1777324320393,3139
1777324320395,3206
1777324320397,3339
1777324320399,3482
1777324320381,3692
1777324320383,3751
1777324320385,3663
1777324320387,3672
1777324320389,3463
1777324320391,3373
1777324320393,3324
1777324320395,3351
1777324320397,3434
1777324320399,3551
1777324320419,3662
1777324320421,3708
1777324320423,3674
1777324320425,3551
1777324320427,3404
1777324320429,3301
1777324320431,3261
1777324320433,3309
1777324320435,3410
1777324320437,3537
1777324320419,3862
1777324320421,3683
1777324320423,3739
1777324320425,3752
1777324320427,3570
1777324320429,3483
1777324320431,3450
1777324320433,3505
1777324320435,3615
1777324320437,3743
1777324320477,3835
1777324320479,3879
1777324320481,3873
1777324320483,3802
1777324320485,3677
1777324320487,3557
1777324320489,3492
1777324320491,3505
1777324320493,3588
1777324320495,3698
1777324320477,3865
1777324320479,3903
1777324320481,3795
1777324320483,3765
1777324320485,3556
1777324320487,3477
1777324320489,3474
1777324320491,3536
1777324320493,3627
1777324320495,3717
1777324320510,3777
1777324320512,3797
1777324320514,3765
1777324320516,3697
1777324320518,3605
1777324320520,3521
1777324320522,3487
1777324320524,3537
1777324320526,3632
1777324320528,3752
1777324320510,4030
1777324320512,3922
1777324320514,3962
1777324320516,3958
1777324320518,3774
1777324320520,3671
1777324320522,3619
1777324320524,3656
1777324320526,3775
1777324320528,3930
1777324320573,4040
1777324320575,4090
1777324320577,4070
1777324320579,3992
1777324320581,3866
1777324320583,3752
1777324320585,3711
1777324320587,3755
1777324320589,3851
1777324320591,3996
1777324320573,4090
1777324320575,4095
1777324320577,4095
1777324320579,4066
1777324320581,3886
1777324320583,3692
1777324320585,3573
1777324320587,3552
1777324320589,3619
1777324320591,3717
1777324320573,3786
1777324320575,3791
1777324320577,3733
1777324320579,3629
1777324320581,3487
1777324320583,3363
1777324320585,3304
1777324320587,3335
1777324320589,3423
1777324320591,3532
1777324320604,3827
1777324320606,3586
1777324320608,3544
1777324320610,3390
1777324320612,3341
1777324320614,3128
1777324320616,3060
1777324320618,3085
1777324320620,3168
1777324320622,3243
1777324320604,3279
1777324320606,3270
1777324320608,3225
1777324320610,3151
1777324320612,3037
1777324320614,2936
1777324320616,2887
1777324320618,2898
1777324320620,2953
1777324320622,3031
1777324320669,3176
1777324320671,3210
1777324320673,3109
1777324320675,3103
1777324320677,2919
1777324320679,2840
1777324320681,2819
1777324320683,2876
1777324320685,2974
1777324320687,3081
1777324320669,3147
1777324320671,3149
1777324320673,3104
1777324320675,3028
1777324320677,2934
1777324320679,2858
1777324320681,2844
1777324320683,2894
1777324320685,2979
1777324320687,3060
1777324320700,3296
1777324320702,3113
1777324320704,3136
1777324320706,3147
1777324320708,2979
1777324320710,2911
1777324320712,2868
1777324320714,2880
1777324320716,2949
1777324320718,3059
1777324320700,3171
1777324320702,3230
1777324320704,3188
1777324320706,3084
1777324320708,2963
1777324320710,2860
1777324320712,2806
1777324320714,2842
1777324320716,2954
1777324320718,3092
1777324320779,3270
1777324320781,3305
1777324320783,3190
1777324320785,3151
1777324320787,2933
1777324320789,2816
1777324320791,2767
1777324320793,2812
1777324320795,2918
1777324320797,3031
1777324320779,3121
1777324320781,3159
1777324320783,3159
1777324320785,3108
1777324320787,3021
1777324320789,2938
1777324320791,2907
1777324320793,2948
1777324320795,3035
1777324320797,3141
1777324320779,3413
1777324320781,3230
1777324320783,3254
1777324320785,3245
1777324320787,3059
1777324320789,2971
1777324320791,2936
1777324320793,2987
1777324320795,3096
1777324320797,3225
1777324320805,3341
1777324320807,3392
1777324320809,3353
1777324320811,3259
1777324320813,3130
1777324320815,3008
1777324320817,2944
1777324320819,2975
1777324320821,3076
1777324320823,3195
1777324320805,3381
1777324320807,3455
1777324320809,3371
1777324320811,3358
1777324320813,3163
1777324320815,3052
1777324320817,2971
1777324320819,2968
1777324320821,3033
1777324320823,3112
1777324320830,3164
1777324320832,3188
1777324320834,3181
1777324320836,3129
1777324320838,3026
1777324320840,2936
1777324320842,2884
1777324320844,2903
1777324320846,2975
1777324320848,3069
1777324320830,3352
1777324320832,3182
1777324320834,3204
1777324320836,3209
1777324320838,3059
1777324320840,3014
1777324320842,3002
1777324320844,3051
1777324320846,3127
1777324320848,3177
1777324320892,3187
1777324320894,3163
1777324320896,3115
1777324320898,3049
1777324320900,2961
1777324320902,2878
1777324320904,2844
1777324320906,2890
1777324320908,2976
1777324320910,3073
1777324320892,3221
1777324320894,3258
1777324320896,3164
1777324320898,3143
1777324320900,2944
1777324320902,2852
1777324320904,2810
1777324320906,2833
1777324320908,2914
1777324320910,3010
1777324320924,3087
1777324320926,3122
1777324320928,3093
1777324320930,3020
1777324320932,2906
1777324320934,2799
1777324320936,2740
1777324320938,2755
1777324320940,2833
1777324320942,2937
1777324320924,3179
1777324320926,3142
1777324320928,3106
1777324320930,3075
1777324320932,2882
1777324320934,2776
1777324320936,2705
1777324320938,2709
1777324320940,2763
1777324320942,2826
1777324320924,2876
1777324320926,2910
1777324320928,2900
1777324320930,2833
1777324320932,2712
1777324320934,2593
1777324320936,2532
1777324320938,2546
1777324320940,2631
1777324320942,2733
1777324320959,2896
1777324320961,2943
1777324320963,2848
1777324320965,2763
1777324320967,2763
1777324320969,2562
1777324320971,2507
1777324320973,2531
1777324320975,2612
1777324320977,2705
1777324320959,2783
1777324320961,2806
1777324320963,2776
1777324320965,2718
1777324320967,2613
1777324320969,2507
1777324320971,2448
1777324320973,2459
1777324320975,2522
1777324320977,2604
1777324321020,2862
1777324321022,2682
1777324321024,2695
1777324321026,2709
1777324321028,2546
1777324321030,2493
1777324321032,2486
1777324321034,2508
1777324321036,2531
1777324321038,2550
1777324321020,2588
1777324321022,2602
1777324321024,2577
1777324321026,2525
1777324321028,2431
1777324321030,2331
1777324321032,2275
1777324321034,2294
1777324321036,2381
1777324321038,2496
1777324321051,2673
1777324321053,2739
1777324321055,2659
1777324321057,2650
1777324321059,2445
1777324321061,2328
1777324321063,2260
1777324321065,2270
1777324321067,2338
1777324321069,2419
1777324321051,2478
1777324321053,2500
1777324321055,2485
1777324321057,2426
1777324321059,2336
1777324321061,2235
1777324321063,2176
1777324321065,2182
1777324321067,2254
1777324321069,2347
1777324321115,2586
1777324321117,2392
1777324321119,2394
1777324321121,2393
1777324321123,2208
1777324321125,2104
1777324321127,2043
1777324321129,2032
1777324321131,2086
1777324321133,2167
1777324321115,2258
1777324321117,2318
1777324321119,2322
1777324321121,2279
1777324321123,2166
1777324321125,2032
1777324321127,1940
1777324321129,1926
1777324321131,2001
1777324321133,2104
1777324321115,2272
1777324321117,2328
1777324321119,2239
1777324321121,2245
1777324321123,2057
1777324321125,1949
1777324321127,1871
1777324321129,1868
1777324321131,1929
1777324321133,2005
1777324321147,2068
1777324321149,2083
1777324321151,2056
1777324321153,1997
1777324321155,1913
1777324321157,1811
1777324321159,1722
1777324321161,1700
1777324321163,1760
1777324321165,1855
1777324321147,2145
1777324321149,1981
1777324321151,2036
1777324321153,2085
1777324321155,1944
1777324321157,1839
1777324321159,1718
1777324321161,1663
1777324321163,1714
1777324321165,1810
1777324321184,1863
1777324321186,1872
1777324321188,1843
1777324321190,1796
1777324321192,1699
1777324321194,1568
1777324321196,1471
1777324321198,1462
1777324321200,1524
1777324321202,1617
1777324321184,1767
1777324321186,1885
1777324321188,1793
1777324321190,1810
1777324321192,1621
1777324321194,1524
1777324321196,1461
1777324321198,1459
1777324321200,1516
1777324321202,1592
1777324321244,1649
1777324321246,1665
1777324321248,1631
1777324321250,1540
1777324321252,1421
1777324321254,1312
1777324321256,1271
1777324321258,1347
1777324321260,1514
1777324321262,1712
1777324321244,2090
1777324321246,2006
1777324321248,2149
1777324321250,2283
1777324321252,2244
1777324321254,2300
1777324321256,2420
1777324321258,2589
1777324321260,2801
1777324321262,2998
1777324321276,3080
1777324321278,3008
1777324321280,2791
1777324321282,2470
1777324321284,2056
1777324321286,1592
1777324321288,1191
1777324321290,921
1777324321292,803
1777324321294,798
1777324321276,844
1777324321278,1101
1777324321280,928
1777324321282,899
1777324321284,870
1777324321286,749
1777324321288,719
1777324321290,735
1777324321292,826
1777324321294,967
1777324321276,1106
1777324321278,1203
1777324321280,1244
1777324321282,1233
1777324321284,1179
1777324321286,1104
1777324321288,1074
1777324321290,1125
1777324321292,1231
1777324321294,1335
1777324321340,1618
1777324321342,1447
1777324321344,1483
1777324321346,1381
1777324321348,1419
1777324321350,1237
1777324321352,1193
1777324321354,1215
1777324321356,1319
1777324321358,1455
1777324321340,1557
1777324321342,1605
1777324321344,1582
1777324321346,1514
1777324321348,1425
1777324321350,1328
1777324321352,1267
1777324321354,1268
1777324321356,1322
1777324321358,1400
1777324321372,1548
1777324321374,1654
1777324321376,1540
1777324321378,1542
1777324321380,1350
1777324321382,1256
1777324321384,1186
1777324321386,1165
1777324321388,1209
1777324321390,1298
1777324321372,1389
1777324321374,1451
1777324321376,1477
1777324321378,1449
1777324321380,1378
1777324321382,1280
1777324321384,1219
1777324321386,1230
1777324321388,1306
1777324321390,1416
1777324321409,1728
1777324321411,1562
1777324321413,1598
1777324321415,1602
1777324321417,1405
1777324321419,1290
1777324321421,1215
1777324321423,1241
1777324321425,1347
1777324321427,1486
1777324321409,1592
1777324321411,1636
1777324321413,1625
1777324321415,1572
1777324321417,1501
1777324321419,1408
1777324321421,1333
1777324321423,1324
1777324321425,1401
1777324321427,1541
1777324321468,1732
1777324321470,1854
1777324321472,1735
1777324321474,1715
1777324321476,1489
1777324321478,1348
1777324321480,1259
1777324321482,1262
1777324321484,1347
1777324321486,1465
1777324321468,1573
1777324321470,1644
1777324321472,1680
1777324321474,1662
1777324321476,1578
1777324321478,1447
1777324321480,1364
1777324321482,1368
1777324321484,1445
1777324321486,1546
1777324321468,1827
1777324321470,1653
1777324321472,1688
1777324321474,1694
1777324321476,1512
1777324321478,1419
1777324321480,1365
1777324321482,1373
1777324321484,1431
1777324321486,1501
1777324321564,1541
1777324321566,1543
1777324321568,1504
1777324321570,1410
1777324321572,1295
1777324321574,1165
1777324321576,1087
1777324321578,1083
1777324321580,1138
1777324321582,1232
1777324321564,1395
1777324321566,1453
1777324321568,1361
1777324321570,1366
1777324321572,1167
1777324321574,1044
1777324321576,939
1777324321578,895
1777324321580,909
1777324321582,961
1777324321564,1023
1777324321566,1080
1777324321568,1100
1777324321570,1078
1777324321572,1018
1777324321574,929
1777324321576,862
1777324321578,860
1777324321580,923
1777324321582,1012
1777324321564,1302
1777324321566,1133
1777324321568,1185
1777324321570,1201
1777324321572,1011
1777324321574,886
1777324321576,807
1777324321578,790
1777324321580,841
1777324321582,929
1777324321596,1005
1777324321598,1050
1777324321600,1042
1777324321602,999
1777324321604,941
1777324321606,884
1777324321608,845
1777324321610,832
1777324321612,859
1777324321614,924
1777324321596,1037
1777324321598,1128
1777324321600,1026
1777324321602,1080
1777324321604,916
1777324321606,836
1777324321608,774
1777324321610,769
1777324321612,837
1777324321614,947
1777324321635,1051
1777324321637,1126
1777324321639,1148
1777324321641,1128
1777324321643,1059
1777324321645,948
1777324321647,852
1777324321649,803
1777324321651,835
1777324321653,925
1777324321635,1183
1777324321637,1154
1777324321639,1162
1777324321641,1202
1777324321643,1072
1777324321645,1028
1777324321647,1011
1777324321649,1009
1777324321651,1046
1777324321653,1124
1777324321635,1197
1777324321637,1232
1777324321639,1223
1777324321641,1195
1777324321643,1144
1777324321645,1068
1777324321647,1013
1777324321649,1027
1777324321651,1121
1777324321653,1229
1777324321691,1402
1777324321693,1563
1777324321695,1485
1777324321697,1384
1777324321699,1387
1777324321701,1162
1777324321703,1088
1777324321705,1098
1777324321707,1195
1777324321709,1335
1777324321692,1467
1777324321694,1565
1777324321696,1598
1777324321698,1561
1777324321700,1494
1777324321702,1387
1777324321704,1296
1777324321706,1284
1777324321708,1362
1777324321710,1493
1777324321724,1826
1777324321726,1707
1777324321728,1782
1777324321730,1826
1777324321732,1664
1777324321734,1570
1777324321736,1495
1777324321738,1496
1777324321740,1578
1777324321742,1700
1777324321724,1805
1777324321726,1861
1777324321728,1858
1777324321730,1817
1777324321732,1763
1777324321734,1669
1777324321736,1596
1777324321738,1587
1777324321740,1651
1777324321742,1761
1777324321788,1928
1777324321790,2036
1777324321792,1922
1777324321794,1930
1777324321796,1776
1777324321798,1685
1777324321800,1611
1777324321802,1612
1777324321804,1687
1777324321806,1800
1777324321788,1908
1777324321790,1975
1777324321792,1997
1777324321794,1975
1777324321796,1910
1777324321798,1803
1777324321800,1721
1777324321802,1697
1777324321804,1736
1777324321806,1826
1777324321820,2113
1777324321822,1953
1777324321824,2004
1777324321826,2029
1777324321828,1855
1777324321830,1749
1777324321832,1664
1777324321834,1659
1777324321836,1741
1777324321838,1878
1777324321820,1994
1777324321822,2043
1777324321824,2010
1777324321826,1926
1777324321828,1815
1777324321830,1682
1777324321832,1590
1777324321834,1575
1777324321836,1641
1777324321838,1758
1777324321820,1931
1777324321822,2057
1777324321824,1977
1777324321826,2005
1777324321828,1874
1777324321830,1826
1777324321832,1780
1777324321834,1743
1777324321836,1753
1777324321838,1815
1777324321859,1886
1777324321861,1928
1777324321863,1955
1777324321865,1949
1777324321867,1878
1777324321869,1734
1777324321871,1605
1777324321873,1543
1777324321875,1576
1777324321877,1679
1777324321859,1999
1777324321861,1870
1777324321863,1936
1777324321865,1971
1777324321867,1826
1777324321869,1735
1777324321871,1651
1777324321873,1626
1777324321875,1686
1777324321877,1807
1777324321949,1894
1777324321951,1906
1777324321953,1863
1777324321955,1792
1777324321957,1707
1777324321959,1610
1777324321961,1541
1777324321963,1543
1777324321965,1630
1777324321967,1765
1777324321949,1974
1777324321951,2062
1777324321953,1946
1777324321955,1923
1777324321957,1733
1777324321959,1638
1777324321961,1585
1777324321963,1606
1777324321965,1692
1777324321967,1821
1777324321949,1939
1777324321951,2006
1777324321953,2016
1777324321955,1994
1777324321957,1952
1777324321959,1867
1777324321961,1782
1777324321963,1752
1777324321965,1779
1777324321967,1860
1777324321951,2152
1777324321953,2016
1777324321955,2091
1777324321957,2148
1777324321959,2025
1777324321961,1955
1777324321963,1890
1777324321965,1864
1777324321967,1909
1777324321969,1983
1777324322007,2043
1777324322009,2065
1777324322011,2064
1777324322013,2049
1777324322015,2002
1777324322017,1915
1777324322019,1844
1777324322021,1830
1777324322023,1903
1777324322025,2026
1777324322007,2144
1777324322009,2378
1777324322011,2254
1777324322013,2168
1777324322015,2181
1777324322017,1991
1777324322019,1908
1777324322021,1885
1777324322023,1936
1777324322025,2047
1777324322007,2151
1777324322009,2215
1777324322011,2217
1777324322013,2168
1777324322015,2078
1777324322017,1977
1777324322019,1911
1777324322021,1889
1777324322023,1918
1777324322025,2000
1777324322086,2290
1777324322088,2152
1777324322090,2227
1777324322092,2179
1777324322094,2238
1777324322096,2063
1777324322098,1989
1777324322100,1980
1777324322102,2049
1777324322104,2177
1777324322086,2287
1777324322088,2345
1777324322090,2347
1777324322092,2304
1777324322094,2242
1777324322096,2169
1777324322098,2110
1777324322100,2095
1777324322102,2164
1777324322104,2292
1777324322086,2469
1777324322088,2593
1777324322090,2509
1777324322092,2511
1777324322094,2367
1777324322096,2236
1777324322098,2119
1777324322100,2069
1777324322102,2125
1777324322104,2260
1777324322086,2393
1777324322088,2455
1777324322090,2450
1777324322092,2398
1777324322094,2317
1777324322096,2214
1777324322098,2129
1777324322100,2098
1777324322102,2147
1777324322104,2253
1777324322142,2565
1777324322144,2437
1777324322146,2479
1777324322148,2478
1777324322150,2312
1777324322152,2204
1777324322154,2097
1777324322156,2052
1777324322158,2095
1777324322160,2198
1777324322142,2312
1777324322144,2385
1777324322146,2397
1777324322148,2367
1777324322150,2314
1777324322152,2228
1777324322154,2151
1777324322156,2134
1777324322158,2192
1777324322160,2288
1777324322198,2371
1777324322200,2607
1777324322202,2446
1777324322204,2365
1777324322206,2322
1777324322208,2154
1777324322210,2080
1777324322212,2088
1777324322214,2181
1777324322216,2311
1777324322198,2421
1777324322200,2471
1777324322202,2473
1777324322204,2436
1777324322206,2368
1777324322208,2262
1777324322210,2180
1777324322212,2165
1777324322214,2232
1777324322216,2351
1777324322198,2652
1777324322200,2513
1777324322202,2551
1777324322204,2565
1777324322206,2453
1777324322208,2413
1777324322210,2400
1777324322212,2478
1777324322214,2643
1777324322216,2853
1777324322225,3078
1777324322227,3274
1777324322229,3436
1777324322231,3564
1777324322233,3671
1777324322235,3727
1777324322237,3753
1777324322239,3787
1777324322241,3814
1777324322243,3796
1777324322225,3741
1777324322227,3560
1777324322229,3115
1777324322231,2773
1777324322233,2327
1777324322235,1990
1777324322237,1750
1777324322239,1650
1777324322241,1675
1777324322243,1776
1777324322279,1888
1777324322281,1950
1777324322283,1983
1777324322285,1994
1777324322287,1998
1777324322289,1977
1777324322291,1961
1777324322293,2000
1777324322295,2095
1777324322297,2240
1777324322279,2568
1777324322281,2455
1777324322283,2510
1777324322285,2509
1777324322287,2359
1777324322289,2272
1777324322291,2199
1777324322293,2194
1777324322295,2271
1777324322297,2390
1777324322309,2510
1777324322311,2591
1777324322313,2618
1777324322315,2592
1777324322317,2521
1777324322319,2411
1777324322321,2310
1777324322323,2288
1777324322325,2337
1777324322327,2421
1777324322309,2564
1777324322311,2699
1777324322313,2625
1777324322315,2621
1777324322317,2457
1777324322319,2366
1777324322321,2290
1777324322323,2268
1777324322325,2320
1777324322327,2429
1777324322369,2553
1777324322371,2633
1777324322373,2655
1777324322375,2600
1777324322377,2495
1777324322379,2373
1777324322381,2278
1777324322383,2269
1777324322385,2323
1777324322387,2417
1777324322369,2657
1777324322371,2657
1777324322373,2687
1777324322375,2708
1777324322377,2571
1777324322379,2487
1777324322381,2387
1777324322383,2337
1777324322385,2384
1777324322387,2504
1777324322369,2611
1777324322371,2644
1777324322373,2636
1777324322375,2603
1777324322377,2526
1777324322379,2434
1777324322381,2357
1777324322383,2342
1777324322385,2401
1777324322387,2514
1777324322401,2704
1777324322403,2861
1777324322405,2800
1777324322407,2740
1777324322409,2776
1777324322411,2578
1777324322413,2490
1777324322415,2460
1777324322417,2509
1777324322419,2615
1777324322401,2726
1777324322403,2790
1777324322405,2810
1777324322407,2799
1777324322409,2764
1777324322411,2700
1777324322413,2639
1777324322415,2628
1777324322417,2662
1777324322419,2745
1777324322466,3031
1777324322468,2889
1777324322470,2938
1777324322472,2953
1777324322474,2808
1777324322476,2737
1777324322478,2649
1777324322480,2597
1777324322482,2620
1777324322484,2705
1777324322466,2817
1777324322468,2895
1777324322470,2916
1777324322472,2886
1777324322474,2814
1777324322476,2699
1777324322478,2567
1777324322480,2480
1777324322482,2472
1777324322484,2522
1777324322497,2648
1777324322499,2760
1777324322501,2661
1777324322503,2658
1777324322505,2490
1777324322507,2364
1777324322509,2238
1777324322511,2182
1777324322513,2204
1777324322515,2283
1777324322498,2385
1777324322500,2449
1777324322502,2474
1777324322504,2451
1777324322506,2392
1777324322508,2289
1777324322510,2167
1777324322512,2097
1777324322514,2117
1777324322516,2219
1777324322534,2516
1777324322536,2382
1777324322538,2454
1777324322540,2503
1777324322542,2339
1777324322544,2221
1777324322546,2109
1777324322548,2053
1777324322550,2083
1777324322552,2196
1777324322534,2341
1777324322536,2419
1777324322538,2424
1777324322540,2392
1777324322542,2324
1777324322544,2223
1777324322546,2135
1777324322548,2100
1777324322550,2156
1777324322552,2276
1777324322534,2455
1777324322536,2575
1777324322538,2494
1777324322540,2506
1777324322542,2368
1777324322544,2294
1777324322546,2222
1777324322548,2202
1777324322550,2254
1777324322552,2374
1777324322594,2503
1777324322596,2569
1777324322598,2588
1777324322600,2552
1777324322602,2485
1777324322604,2391
1777324322606,2309
1777324322608,2295
1777324322610,2372
1777324322612,2510
1777324322594,2833
1777324322596,2706
1777324322598,2760
1777324322600,2776
1777324322602,2623
1777324322604,2525
1777324322606,2425
1777324322608,2380
1777324322610,2406
1777324322612,2496
1777324322626,2613
1777324322628,2698
1777324322630,2734
1777324322632,2716
1777324322634,2669
1777324322636,2595
1777324322638,2510
1777324322640,2466
1777324322642,2474
1777324322644,2538
1777324322626,2690
1777324322628,2844
1777324322630,2767
1777324322632,2782
1777324322634,2621
1777324322636,2546
1777324322638,2479
1777324322640,2459
1777324322642,2485
1777324322644,2551
1777324322690,2652
1777324322692,2746
1777324322694,2804
1777324322696,2806
1777324322698,2750
1777324322700,2659
1777324322702,2550
1777324322704,2488
1777324322706,2501
1777324322708,2576
1777324322690,2860
1777324322692,2741
1777324322694,2819
1777324322696,2843
1777324322698,2708
1777324322700,2631
1777324322702,2550
1777324322704,2510
1777324322706,2546
1777324322708,2648
1777324322722,2756
1777324322724,2817
1777324322726,2816
1777324322728,2782
1777324322730,2718
1777324322732,2623
1777324322734,2520
1777324322736,2485
1777324322738,2534
1777324322740,2653
1777324322722,2785
1777324322724,3065
1777324322726,2928
1777324322728,2874
1777324322730,2793
1777324322732,2616
1777324322734,2506
1777324322736,2457
1777324322738,2493
1777324322740,2596
1777324322722,2714
1777324322724,2797
1777324322726,2848
1777324322728,2846
1777324322730,2779
1777324322732,2682
1777324322734,2593
1777324322736,2504
1777324322738,2462
1777324322740,2501
1777324322759,2787
1777324322761,2673
1777324322763,2760
1777324322765,2714
1777324322767,2778
1777324322769,2625
1777324322771,2526
1777324322773,2462
1777324322775,2479
1777324322777,2564
1777324322759,2676
1777324322761,2775
1777324322763,2817
1777324322765,2791
1777324322767,2711
1777324322769,2597
1777324322771,2477
1777324322773,2409
1777324322775,2422
1777324322777,2504
1777324322818,2672
1777324322820,2844
1777324322822,2810
1777324322824,2874
1777324322826,2751
1777324322828,2665
1777324322830,2549
1777324322832,2478
1777324322834,2483
1777324322836,2551
1777324322818,2648
1777324322820,2728
1777324322822,2764
1777324322824,2760
1777324322826,2716
1777324322828,2638
1777324322830,2546
1777324322832,2504
1777324322834,2563
1777324322836,2712
1777324322849,3041
1777324322851,2898
1777324322853,2937
1777324322855,2920
1777324322857,2747
1777324322859,2624
1777324322861,2496
1777324322863,2439
1777324322865,2456
1777324322867,2552
1777324322849,2688
1777324322851,2799
1777324322853,2867
1777324322855,2891
1777324322857,2846
1777324322859,2754
1777324322861,2650
1777324322863,2589
1777324322865,2611
1777324322867,2703
1777324322913,2888
1777324322915,3068
1777324322917,3013
1777324322919,3038
1777324322921,2910
1777324322923,2843
1777324322925,2780
1777324322927,2758
1777324322929,2792
1777324322931,2873
1777324322913,2971
1777324322915,3027
1777324322917,3030
1777324322919,2985
1777324322921,2911
1777324322923,2844
1777324322925,2772
1777324322927,2715
1777324322929,2718
1777324322931,2772
1777324322913,3057
1777324322915,2944
1777324322917,3038
1777324322919,3069
1777324322921,2922
1777324322923,2823
1777324322925,2721
1777324322927,2663
1777324322929,2675
1777324322931,2752
1777324322946,2857
1777324322948,2938
1777324322950,2981
1777324322952,2979
1777324322954,2931
1777324322956,2840
1777324322958,2737
1777324322960,2679
1777324322962,2701
1777324322964,2802
1777324322946,3012
1777324322948,3175
1777324322950,3098
1777324322952,3116
1777324322954,2958
1777324322956,2866
1777324322958,2765
1777324322960,2723
1777324322962,2747
1777324322964,2804
1777324323010,2910
1777324323012,3010
1777324323014,3056
1777324323016,3036
1777324323018,2970
1777324323020,2889
1777324323022,2803
1777324323024,2751
1777324323026,2762
1777324323028,2852
1777324323010,3159
1777324323012,3065
1777324323014,3162
1777324323016,3204
1777324323018,3054
1777324323020,2963
1777324323022,2861
1777324323024,2801
1777324323026,2816
1777324323028,2889
1777324323041,2988
1777324323043,3074
1777324323045,3122
1777324323047,3141
1777324323049,3104
1777324323051,3025
1777324323053,2933
1777324323055,2872
1777324323057,2874
1777324323059,2966
1777324323041,3150
1777324323043,3326
1777324323045,3283
1777324323047,3332
1777324323049,3203
1777324323051,3127
1777324323053,3018
1777324323055,2929
1777324323057,2909
1777324323059,2966
1777324323074,3061
1777324323076,3124
1777324323078,3126
1777324323080,3090
1777324323082,3032
1777324323084,2958
1777324323086,2874
1777324323088,2834
1777324323090,2857
1777324323092,2928
1777324323074,3175
1777324323076,3188
1777324323078,3225
1777324323080,3256
1777324323082,3084
1777324323084,2947
1777324323086,2807
1777324323088,2727
1777324323090,2743
1777324323092,2847
1777324323074,2987
1777324323076,3085
1777324323078,3116
1777324323080,3110
1777324323082,3075
1777324323084,3017
1777324323086,2936
1777324323088,2857
1777324323090,2847
1777324323092,2922
1777324323136,3060
1777324323138,3196
1777324323140,3130
1777324323142,3071
1777324323144,3117
1777324323146,2944
1777324323148,2846
1777324323150,2786
1777324323152,2795
1777324323154,2876
1777324323136,2994
1777324323138,3087
1777324323140,3130
1777324323142,3137
1777324323144,3103
1777324323146,3023
1777324323148,2907
1777324323150,2811
1777324323152,2779
1777324323154,2821
1777324323165,3064
1777324323167,3044
1777324323169,3079
1777324323171,3125
1777324323173,3007
1777324323175,2998
1777324323177,3019
1777324323179,3067
1777324323181,3154
1777324323183,3316
1777324323165,3542
1777324323167,3821
1777324323169,4058
1777324323171,4095
1777324323173,4095
1777324323175,4095
1777324323177,4095
1777324323179,4095
1777324323181,4095
1777324323183,4095
1777324323228,4094
1777324323230,3960
1777324323232,3589
1777324323234,3253
1777324323236,2807
1777324323238,2501
1777324323240,2253
1777324323242,2094
1777324323244,2067
1777324323246,2149
1777324323228,2283
1777324323230,2405
1777324323232,2484
1777324323234,2522
1777324323236,2516
1777324323238,2492
1777324323240,2462
1777324323242,2460
1777324323244,2510
1777324323246,2615
1777324323261,2935
1777324323263,2850
1777324323265,2962
1777324323267,3066
1777324323269,2999
1777324323271,2963
1777324323273,2886
1777324323275,2816
1777324323277,2818
1777324323279,2896
1777324323261,3016
1777324323263,3129
1777324323265,3187
1777324323267,3209
1777324323269,3189
1777324323271,3134
1777324323273,3065
1777324323275,3014
1777324323277,3019
1777324323279,3086
1777324323261,3233
1777324323263,3409
1777324323265,3347
1777324323267,3407
1777324323269,3305
1777324323271,3250
1777324323273,3170
1777324323275,3109
1777324323277,3122
1777324323279,3192
1777324323300,3299
1777324323302,3396
1777324323304,3468
1777324323306,3502
1777324323308,3492
1777324323310,3445
1777324323312,3346
1777324323314,3249
1777324323316,3229
1777324323318,3309
1777324323300,3649
1777324323302,3574
1777324323304,3710
1777324323306,3773
1777324323308,3661
1777324323310,3624
1777324323312,3527
1777324323314,3413
1777324323316,3369
1777324323318,3405
1777324323356,3501
1777324323358,3624
1777324323360,3705
1777324323362,3723
1777324323364,3690
1777324323366,3623
1777324323368,3532
1777324323370,3464
1777324323372,3473
1777324323374,3568
1777324323356,3755
1777324323358,3982
1777324323360,3943
1777324323362,3990
1777324323364,3891
1777324323366,3811
1777324323368,3725
1777324323370,3678
1777324323372,3675
1777324323374,3740
1777324323389,3846
1777324323391,3945
1777324323393,3993
1777324323395,4000
1777324323397,3965
1777324323399,3909
1777324323401,3847
1777324323403,3815
1777324323405,3823
1777324323407,3887
1777324323389,4065
1777324323391,4062
1777324323393,4093
1777324323395,4087
1777324323397,4022
1777324323399,3927
1777324323401,3825
1777324323403,3736
1777324323405,3689
1777324323407,3707
1777324323452,3776
1777324323454,3864
1777324323456,3912
1777324323458,3910
1777324323460,3860
1777324323462,3762
1777324323464,3620
1777324323466,3501
1777324323468,3450
1777324323470,3484
1777324323452,3561
1777324323454,3872
1777324323456,3732
1777324323458,3732
1777324323460,3678
1777324323462,3515
1777324323464,3392
1777324323466,3278
1777324323468,3215
1777324323470,3222
1777324323452,3281
1777324323454,3343
1777324323456,3362
1777324323458,3338
1777324323460,3273
1777324323462,3181
1777324323464,3067
1777324323466,2978
1777324323468,2936
1777324323470,2952
1777324323484,3211
1777324323486,3062
1777324323488,3101
1777324323490,3025
1777324323492,3075
1777324323494,2903
1777324323496,2804
1777324323498,2710
1777324323500,2674
1777324323502,2726
1777324323484,2808
1777324323486,2884
1777324323488,2908
1777324323490,2897
1777324323492,2853
1777324323494,2781
1777324323496,2684
1777324323498,2609
1777324323500,2591
1777324323502,2649
1777324323524,2792
1777324323526,2990
1777324323528,2910
1777324323530,2944
1777324323532,2807
1777324323534,2749
1777324323536,2667
1777324323538,2581
1777324323540,2538
1777324323542,2569
1777324323524,2650
1777324323526,2741
1777324323528,2805
1777324323530,2812
1777324323532,2771
1777324323534,2694
1777324323536,2600
1777324323538,2534
1777324323540,2532
1777324323542,2605
1777324323581,2927
1777324323583,2854
1777324323585,2951
1777324323587,2957
1777324323589,2756
1777324323591,2621
1777324323593,2488
1777324323595,2395
1777324323597,2355
1777324323599,2390
1777324323581,2484
1777324323583,2589
1777324323585,2657
1777324323587,2676
1777324323589,2653
1777324323591,2595
1777324323593,2506
1777324323595,2433
1777324323597,2414
1777324323599,2454
1777324323614,2578
1777324323616,2737
1777324323618,2652
