timestamp_ms,ecg_raw
1777324101414,2458
1777324101416,2423
1777324101418,2382
1777324101420,2301
1777324101422,2237
1777324101424,2204
1777324101426,2230
1777324101428,2310
1777324101430,2381
1777324101432,2411
1777324101414,2601
1777324101416,2384
1777324101418,2390
1777324101420,2394
1777324101422,2300
1777324101424,2311
1777324101426,2317
1777324101428,2343
1777324101430,2355
1777324101432,2343
1777324101414,2310
1777324101416,2292
1777324101418,2288
1777324101420,2270
1777324101422,2243
1777324101424,2243
1777324101426,2300
1777324101428,2411
1777324101430,2493
1777324101432,2518
1777324101476,2530
1777324101478,2607
1777324101480,2486
1777324101482,2366
1777324101484,2385
1777324101486,2268
1777324101488,2305
1777324101490,2380
1777324101492,2417
1777324101494,2427
1777324101476,2404
1777324101478,2356
1777324101480,2332
1777324101482,2309
1777324101484,2280
1777324101486,2256
1777324101488,2287
1777324101490,2362
1777324101492,2427
1777324101494,2474
1777324101508,2697
1777324101510,2515
1777324101512,2555
1777324101514,2516
1777324101516,2340
1777324101518,2281
1777324101520,2283
1777324101522,2336
1777324101524,2373
1777324101526,2367
1777324101508,2362
1777324101510,2377
1777324101512,2373
1777324101514,2346
1777324101516,2327
1777324101518,2338
1777324101520,2405
1777324101522,2503
1777324101524,2563
1777324101526,2558
1777324101540,2526
1777324101542,2556
1777324101544,2381
1777324101546,2375
1777324101548,2270
1777324101550,2272
1777324101552,2341
1777324101554,2452
1777324101556,2536
1777324101558,2551
1777324101540,2483
1777324101542,2377
1777324101544,2309
1777324101546,2261
1777324101548,2204
1777324101550,2195
1777324101552,2246
1777324101554,2343
1777324101556,2440
1777324101558,2492
1777324101603,2707
1777324101605,2492
1777324101607,2528
1777324101609,2546
1777324101611,2424
1777324101613,2367
1777324101615,2306
1777324101617,2270
1777324101619,2239
1777324101621,2207
1777324101603,2185
1777324101605,2183
1777324101607,2185
1777324101609,2169
1777324101611,2162
1777324101613,2204
1777324101615,2286
1777324101617,2380
1777324101619,2437
1777324101621,2435
1777324101603,2431
1777324101605,2483
1777324101607,2296
1777324101609,2242
1777324101611,2094
1777324101613,2094
1777324101615,2149
1777324101617,2239
1777324101619,2323
1777324101621,2361
1777324101635,2367
1777324101637,2344
1777324101639,2296
1777324101641,2235
1777324101643,2183
1777324101645,2177
1777324101647,2199
1777324101649,2245
1777324101651,2285
1777324101653,2279
1777324101635,2439
1777324101637,2184
1777324101639,2199
1777324101641,2209
1777324101643,2072
1777324101645,2023
1777324101647,2032
1777324101649,2107
1777324101651,2185
1777324101653,2235
1777324101699,2271
1777324101701,2298
1777324101703,2308
1777324101705,2276
1777324101707,2197
1777324101709,2141
1777324101711,2140
1777324101713,2182
1777324101715,2219
1777324101717,2220
1777324101699,2251
1777324101701,2362
1777324101703,2276
1777324101705,2298
1777324101707,2200
1777324101709,2141
1777324101711,2113
1777324101713,2118
1777324101715,2142
1777324101717,2164
1777324101731,2170
1777324101733,2127
1777324101735,2077
1777324101737,2040
1777324101739,2006
1777324101741,1996
1777324101743,2015
1777324101745,2041
1777324101747,2058
1777324101749,2043
1777324101731,2245
1777324101733,2055
1777324101735,2126
1777324101737,2151
1777324101739,1996
1777324101741,1945
1777324101743,1916
1777324101745,1947
1777324101747,1982
1777324101749,2005
1777324101762,1994
1777324101764,1954
1777324101766,1940
1777324101768,1949
1777324101770,1961
1777324101772,2014
1777324101774,2113
1777324101776,2252
1777324101778,2369
1777324101780,2408
1777324101762,2389
1777324101764,2527
1777324101766,2329
1777324101768,2259
1777324101770,2244
1777324101772,2156
1777324101774,2189
1777324101776,2246
1777324101778,2300
1777324101780,2336
1777324101762,2342
1777324101764,2307
1777324101766,2268
1777324101768,2219
1777324101770,2157
1777324101772,2113
1777324101774,2105
1777324101776,2164
1777324101778,2261
1777324101780,2349
1777324101827,2635
1777324101829,2542
1777324101831,2686
1777324101833,2717
1777324101835,2885
1777324101837,2942
1777324101839,3154
1777324101841,3427
1777324101843,3758
1777324101845,4052
1777324101827,4095
1777324101829,4095
1777324101831,4095
1777324101833,4095
1777324101835,4063
1777324101837,3758
1777324101839,3396
1777324101841,3067
1777324101843,2764
1777324101845,2480
1777324101860,2303
1777324101862,2266
1777324101864,2032
1777324101866,1973
1777324101868,1799
1777324101870,1762
1777324101872,1809
1777324101874,1924
1777324101876,2069
1777324101878,2194
1777324101860,2269
1777324101862,2279
1777324101864,2294
1777324101866,2320
1777324101868,2329
1777324101870,2347
1777324101872,2370
1777324101874,2408
1777324101876,2421
1777324101878,2412
1777324101928,2599
1777324101930,2380
1777324101932,2419
1777324101934,2455
1777324101936,2359
1777324101938,2362
1777324101940,2403
1777324101942,2480
1777324101944,2575
1777324101946,2610
1777324101928,2584
1777324101930,2541
1777324101932,2519
1777324101934,2518
1777324101936,2496
1777324101938,2483
1777324101940,2525
1777324101942,2611
1777324101944,2676
1777324101946,2705
1777324101962,2776
1777324101964,2899
1777324101966,2754
1777324101968,2734
1777324101970,2566
1777324101972,2500
1777324101974,2507
1777324101976,2600
1777324101978,2722
1777324101980,2798
1777324101962,2817
1777324101964,2800
1777324101966,2779
1777324101968,2743
1777324101970,2692
1777324101972,2670
1777324101974,2693
1777324101976,2770
1777324101978,2832
1777324101980,2821
1777324101962,2977
1777324101964,2716
1777324101966,2714
1777324101968,2728
1777324101970,2620
1777324101972,2635
1777324101974,2700
1777324101976,2811
1777324101978,2926
1777324101980,3001
1777324101996,3025
1777324101998,3009
1777324102000,2972
1777324102002,2922
1777324102004,2839
1777324102006,2776
1777324102008,2765
1777324102010,2824
1777324102012,2942
1777324102014,3025
1777324101996,3113
1777324101998,3248
1777324102000,3149
1777324102002,3196
1777324102004,3051
1777324102006,3016
1777324102008,3012
1777324102010,3061
1777324102012,3157
1777324102014,3233
1777324102061,3277
1777324102063,3296
1777324102065,3311
1777324102067,3303
1777324102069,3251
1777324102071,3215
1777324102073,3243
1777324102075,3311
1777324102077,3366
1777324102079,3362
1777324102061,3538
1777324102063,3287
1777324102065,3299
1777324102067,3314
1777324102069,3200
1777324102071,3217
1777324102073,3265
1777324102075,3334
1777324102077,3412
1777324102079,3444
1777324102094,3438
1777324102096,3397
1777324102098,3336
1777324102100,3258
1777324102102,3132
1777324102104,2999
1777324102106,2923
1777324102108,2919
1777324102110,2955
1777324102112,2976
1777324102094,3016
1777324102096,3137
1777324102098,2973
1777324102100,2941
1777324102102,2807
1777324102104,2707
1777324102106,2701
1777324102108,2744
1777324102110,2786
1777324102112,2779
1777324102126,2762
1777324102128,2747
1777324102130,2721
1777324102132,2686
1777324102134,2639
1777324102136,2631
1777324102138,2659
1777324102140,2707
1777324102142,2728
1777324102144,2707
1777324102126,2863
1777324102128,2627
1777324102130,2630
1777324102132,2633
1777324102134,2521
1777324102136,2535
1777324102138,2586
1777324102140,2665
1777324102142,2752
1777324102144,2791
1777324102126,2765
1777324102128,2686
1777324102130,2616
1777324102132,2596
1777324102134,2590
1777324102136,2590
1777324102138,2602
1777324102140,2629
1777324102142,2645
1777324102144,2629
1777324102190,2603
1777324102192,2772
1777324102194,2617
1777324102196,2531
1777324102198,2567
1777324102200,2429
1777324102202,2417
1777324102204,2461
1777324102206,2523
1777324102208,2573
1777324102190,2619
1777324102192,2647
1777324102194,2659
1777324102196,2650
1777324102198,2617
1777324102200,2576
1777324102202,2533
1777324102204,2524
1777324102206,2550
1777324102208,2542
1777324102221,2704
1777324102223,2472
1777324102225,2501
1777324102227,2541
1777324102229,2447
1777324102231,2407
1777324102233,2432
1777324102235,2533
1777324102237,2650
1777324102239,2713
1777324102283,2730
1777324102285,2720
1777324102287,2696
1777324102289,2647
1777324102291,2579
1777324102293,2523
1777324102295,2470
1777324102297,2437
1777324102299,2461
1777324102301,2510
1777324102283,2584
1777324102285,2689
1777324102287,2544
1777324102289,2526
1777324102291,2455
1777324102293,2450
1777324102295,2516
1777324102297,2621
1777324102299,2717
1777324102301,2743
1777324102283,2706
1777324102285,2653
1777324102287,2608
1777324102289,2545
1777324102291,2470
1777324102293,2411
1777324102295,2395
1777324102297,2428
1777324102299,2507
1777324102301,2578
1777324102315,2796
1777324102317,2589
1777324102319,2613
1777324102321,2614
1777324102323,2526
1777324102325,2490
1777324102327,2519
1777324102329,2595
1777324102331,2669
1777324102333,2688
1777324102315,2672
1777324102317,2659
1777324102319,2635
1777324102321,2606
1777324102323,2535
1777324102325,2470
1777324102327,2461
1777324102329,2516
1777324102331,2590
1777324102333,2646
1777324102315,2708
1777324102317,2794
1777324102319,2667
1777324102321,2666
1777324102323,2576
1777324102325,2530
1777324102327,2545
1777324102329,2580
1777324102331,2611
1777324102333,2631
1777324102347,2644
1777324102349,2659
1777324102351,2671
1777324102353,2669
1777324102355,2633
1777324102357,2595
1777324102359,2589
1777324102361,2624
1777324102363,2661
1777324102365,2647
1777324102347,2764
1777324102349,2529
1777324102351,2543
1777324102353,2560
1777324102355,2483
1777324102357,2490
1777324102359,2526
1777324102361,2594
1777324102363,2671
1777324102365,2709
1777324102410,2708
1777324102412,2691
1777324102414,2671
1777324102416,2656
1777324102418,2613
1777324102420,2543
1777324102422,2513
1777324102424,2543
1777324102426,2603
1777324102428,2644
1777324102410,2692
1777324102412,2770
1777324102414,2608
1777324102416,2549
1777324102418,2424
1777324102420,2355
1777324102422,2385
1777324102424,2507
1777324102426,2669
1777324102428,2790
1777324102442,2831
1777324102444,2807
1777324102446,2739
1777324102448,2649
1777324102450,2548
1777324102452,2466
1777324102454,2448
1777324102456,2510
1777324102458,2607
1777324102460,2650
1777324102442,2826
1777324102444,2593
1777324102446,2636
1777324102448,2687
1777324102450,2602
1777324102452,2577
1777324102454,2568
1777324102456,2589
1777324102458,2628
1777324102460,2645
1777324102506,2636
1777324102508,2626
1777324102510,2608
1777324102512,2586
1777324102514,2548
1777324102516,2520
1777324102518,2516
1777324102520,2551
1777324102522,2616
1777324102524,2655
1777324102506,2665
1777324102508,2864
1777324102510,2690
1777324102512,2590
1777324102514,2630
1777324102516,2509
1777324102518,2533
1777324102520,2587
1777324102522,2656
1777324102524,2707
1777324102538,2697
1777324102540,2652
1777324102542,2620
1777324102544,2606
1777324102546,2582
1777324102548,2533
1777324102550,2486
1777324102552,2489
1777324102554,2544
1777324102556,2602
1777324102538,2841
1777324102540,2649
1777324102542,2667
1777324102544,2541
1777324102546,2589
1777324102548,2477
1777324102550,2522
1777324102552,2624
1777324102554,2721
1777324102556,2761
1777324102538,2736
1777324102540,2669
1777324102542,2562
1777324102544,2451
1777324102546,2357
1777324102548,2327
1777324102550,2383
1777324102552,2492
1777324102554,2619
1777324102556,2717
1777324102601,2795
1777324102603,2915
1777324102605,2788
1777324102607,2779
1777324102609,2683
1777324102611,2613
1777324102613,2570
1777324102615,2527
1777324102617,2514
1777324102619,2518
1777324102601,2519
1777324102603,2520
1777324102605,2524
1777324102607,2527
1777324102609,2523
1777324102611,2503
1777324102613,2499
1777324102615,2531
1777324102617,2594
1777324102619,2660
1777324102633,2902
1777324102635,2721
1777324102637,2754
1777324102639,2714
1777324102641,2510
1777324102643,2385
1777324102645,2324
1777324102647,2357
1777324102649,2476
1777324102651,2617
1777324102633,2696
1777324102635,2709
1777324102637,2668
1777324102639,2626
1777324102641,2600
1777324102643,2593
1777324102645,2639
1777324102647,2706
1777324102649,2750
1777324102651,2741
1777324102667,2710
1777324102669,2742
1777324102671,2582
1777324102673,2528
1777324102675,2425
1777324102677,2397
1777324102679,2448
1777324102681,2544
1777324102683,2660
1777324102685,2738
1777324102667,2745
1777324102669,2697
1777324102671,2633
1777324102673,2584
1777324102675,2524
1777324102677,2446
1777324102679,2408
1777324102681,2442
1777324102683,2539
1777324102685,2620
1777324102667,2834
1777324102669,2620
1777324102671,2627
1777324102673,2590
1777324102675,2497
1777324102677,2417
1777324102679,2418
1777324102681,2474
1777324102683,2577
1777324102685,2650
1777324102730,2667
1777324102732,2650
1777324102734,2586
1777324102736,2506
1777324102738,2438
1777324102740,2379
1777324102742,2379
1777324102744,2438
1777324102746,2533
1777324102748,2608
1777324102730,2659
1777324102732,2756
1777324102734,2617
1777324102736,2580
1777324102738,2467
1777324102740,2395
1777324102742,2379
1777324102744,2419
1777324102746,2486
1777324102748,2539
1777324102762,2563
1777324102764,2554
1777324102766,2513
1777324102768,2461
1777324102770,2418
1777324102772,2388
1777324102774,2399
1777324102776,2461
1777324102778,2565
1777324102780,2671
1777324102762,2956
1777324102764,2869
1777324102766,3054
1777324102768,3235
1777324102770,3318
1777324102772,3489
1777324102774,3710
1777324102776,3991
1777324102778,4095
1777324102780,4095
1777324102825,4095
1777324102827,4095
1777324102829,4095
1777324102831,4028
1777324102833,3654
1777324102835,3221
1777324102837,2818
1777324102839,2496
1777324102841,2286
1777324102843,2135
1777324102825,2021
1777324102827,2131
1777324102829,1929
1777324102831,1903
1777324102833,1874
1777324102835,1840
1777324102837,1913
1777324102839,2056
1777324102841,2226
1777324102843,2379
1777324102858,2472
1777324102860,2507
1777324102862,2528
1777324102864,2571
1777324102866,2600
1777324102868,2585
1777324102870,2555
1777324102872,2547
1777324102874,2586
1777324102876,2653
1777324102858,2897
1777324102860,2720
1777324102862,2746
1777324102864,2751
1777324102866,2665
1777324102868,2642
1777324102870,2632
1777324102872,2648
1777324102874,2686
1777324102876,2730
1777324102858,2748
1777324102860,2750
1777324102862,2733
1777324102864,2705
1777324102866,2671
1777324102868,2635
1777324102870,2619
1777324102872,2646
1777324102874,2720
1777324102876,2792
1777324102889,2857
1777324102891,2984
1777324102893,2870
1777324102895,2794
1777324102897,2837
1777324102899,2678
1777324102901,2647
1777324102903,2652
1777324102905,2688
1777324102907,2730
1777324102889,2754
1777324102891,2764
1777324102893,2764
1777324102895,2742
1777324102897,2710
1777324102899,2673
1777324102901,2671
1777324102903,2731
1777324102905,2834
1777324102907,2922
1777324102952,3149
1777324102954,2929
1777324102956,2950
1777324102958,2920
1777324102960,2749
1777324102962,2643
1777324102964,2623
1777324102966,2686
1777324102968,2794
1777324102970,2901
1777324102952,2969
1777324102954,2976
1777324102956,2919
1777324102958,2841
1777324102960,2774
1777324102962,2731
1777324102964,2725
1777324102966,2783
1777324102968,2876
1777324102970,2937
1777324102984,2971
1777324102986,3032
1777324102988,2888
1777324102990,2899
1777324102992,2854
1777324102994,2848
1777324102996,2885
1777324102998,2936
1777324103000,2993
1777324103002,3020
1777324102984,3008
1777324102986,2946
1777324102988,2867
1777324102990,2787
1777324102992,2703
1777324102994,2632
1777324102996,2599
1777324102998,2626
1777324103000,2719
1777324103002,2825
1777324103048,3080
1777324103050,2870
1777324103052,2874
1777324103054,2825
1777324103056,2663
1777324103058,2589
1777324103060,2569
1777324103062,2599
1777324103064,2658
1777324103066,2709
1777324103048,2701
1777324103050,2670
1777324103052,2635
1777324103054,2584
1777324103056,2503
1777324103058,2409
1777324103060,2345
1777324103062,2330
1777324103064,2320
1777324103066,2309
1777324103048,2338
1777324103050,2435
1777324103052,2306
1777324103054,2287
1777324103056,2230
1777324103058,2204
1777324103060,2225
1777324103062,2272
1777324103064,2321
1777324103066,2341
1777324103081,2282
1777324103083,2162
1777324103085,2032
1777324103087,1931
1777324103089,1850
1777324103091,1827
1777324103093,1891
1777324103095,2009
1777324103097,2129
1777324103099,2210
1777324103081,2418
1777324103083,2162
1777324103085,2132
1777324103087,2073
1777324103089,1964
1777324103091,1892
1777324103093,1910
1777324103095,1998
1777324103097,2124
1777324103099,2234
1777324103113,2293
1777324103115,2273
1777324103117,2165
1777324103119,2026
1777324103121,1890
1777324103123,1793
1777324103125,1766
1777324103127,1794
1777324103129,1883
1777324103131,1997
1777324103113,2122
1777324103115,2257
1777324103117,2129
1777324103119,2080
1777324103121,1972
1777324103123,1917
1777324103125,1928
1777324103127,1996
1777324103129,2093
1777324103131,2171
1777324103177,2183
1777324103179,2116
1777324103181,2016
1777324103183,1920
1777324103185,1847
1777324103187,1777
1777324103189,1732
1777324103191,1753
1777324103193,1859
1777324103195,1984
1777324103177,2193
1777324103179,2212
1777324103181,2157
1777324103183,2141
1777324103185,1999
1777324103187,1938
1777324103189,1927
1777324103191,1958
1777324103193,2007
1777324103195,2049
1777324103236,2070
1777324103238,2047
1777324103240,2004
1777324103242,1984
1777324103244,1957
1777324103246,1909
1777324103248,1875
1777324103250,1889
1777324103252,1961
1777324103254,2031
1777324103236,2046
1777324103238,2241
1777324103240,2095
1777324103242,2068
1777324103244,2067
1777324103246,1975
1777324103248,1942
1777324103250,1948
1777324103252,1992
1777324103254,2066
1777324103236,2115
1777324103238,2088
1777324103240,2024
1777324103242,1947
1777324103244,1887
1777324103246,1865
1777324103248,1894
1777324103250,1987
1777324103252,2100
1777324103254,2167
1777324103265,2360
1777324103267,2103
1777324103269,2090
1777324103271,1988
1777324103273,2040
1777324103275,1922
1777324103277,1913
1777324103279,1976
1777324103281,2094
1777324103283,2175
1777324103265,2187
1777324103267,2154
1777324103269,2120
1777324103271,2101
1777324103273,2087
1777324103275,2059
1777324103277,2018
1777324103279,2000
1777324103281,2013
1777324103283,2022
1777324103293,2054
1777324103295,2149
1777324103297,2017
1777324103299,2041
1777324103301,1982
1777324103303,1935
1777324103305,1897
1777324103307,1888
1777324103309,1920
1777324103311,1955
1777324103293,1965
1777324103295,1928
1777324103297,1857
1777324103299,1798
1777324103301,1762
1777324103303,1735
1777324103305,1735
1777324103307,1802
1777324103309,1884
1777324103311,1943
1777324103348,2169
1777324103350,1933
1777324103352,1930
1777324103354,1927
1777324103356,1808
1777324103358,1822
1777324103360,1816
1777324103362,1823
1777324103364,1878
1777324103366,1928
1777324103348,1933
1777324103350,1908
1777324103352,1856
1777324103354,1791
1777324103356,1724
1777324103358,1653
1777324103360,1594
1777324103362,1592
1777324103364,1674
1777324103366,1778
1777324103402,1884
1777324103404,1994
1777324103406,1806
1777324103408,1772
1777324103410,1596
1777324103412,1567
1777324103414,1575
1777324103416,1639
1777324103418,1750
1777324103420,1860
1777324103402,1904
1777324103404,1881
1777324103406,1844
1777324103408,1815
1777324103410,1745
1777324103412,1650
1777324103414,1553
1777324103416,1523
1777324103418,1573
1777324103420,1613
1777324103402,1860
1777324103404,1640
1777324103406,1680
1777324103408,1708
1777324103410,1594
1777324103412,1557
1777324103414,1523
1777324103416,1546
1777324103418,1636
1777324103420,1724
1777324103428,1755
1777324103430,1706
1777324103432,1607
1777324103434,1512
1777324103436,1417
1777324103438,1358
1777324103440,1350
1777324103442,1398
1777324103444,1499
1777324103446,1585
1777324103428,1648
1777324103430,1719
1777324103432,1529
1777324103434,1501
1777324103436,1330
1777324103438,1288
1777324103440,1269
1777324103442,1308
1777324103444,1405
1777324103446,1486
1777324103474,1517
1777324103476,1493
1777324103478,1433
1777324103480,1368
1777324103482,1325
1777324103484,1295
1777324103486,1278
1777324103488,1306
1777324103490,1353
1777324103492,1398
1777324103474,1638
1777324103476,1387
1777324103478,1394
1777324103480,1361
1777324103482,1170
1777324103484,1115
1777324103486,1093
1777324103488,1147
1777324103490,1261
1777324103492,1369
1777324103551,1426
1777324103553,1425
1777324103555,1388
1777324103557,1347
1777324103559,1311
1777324103561,1299
1777324103563,1311
1777324103565,1341
1777324103567,1367
1777324103569,1356
1777324103551,1325
1777324103553,1504
1777324103555,1269
1777324103557,1246
1777324103559,1108
1777324103561,1037
1777324103563,1009
1777324103565,1071
1777324103567,1192
1777324103569,1286
1777324103594,1330
1777324103596,1300
1777324103598,1240
1777324103600,1158
1777324103602,1041
1777324103604,936
1777324103606,877
1777324103608,881
1777324103610,931
1777324103612,964
1777324103594,1180
1777324103596,945
1777324103598,970
1777324103600,1012
1777324103602,892
1777324103604,848
1777324103606,809
1777324103608,807
1777324103610,854
1777324103612,906
1777324103594,937
1777324103596,928
1777324103598,881
1777324103600,815
1777324103602,765
1777324103604,749
1777324103606,765
1777324103608,817
1777324103610,887
1777324103612,923
1777324103636,968
1777324103638,1086
1777324103640,928
1777324103642,820
1777324103644,862
1777324103646,729
1777324103648,713
1777324103650,725
1777324103652,755
1777324103654,790
1777324103636,807
1777324103638,784
1777324103640,738
1777324103642,684
1777324103644,629
1777324103646,563
1777324103648,492
1777324103650,454
1777324103652,481
1777324103654,552
1777324103675,844
1777324103677,686
1777324103679,750
1777324103681,820
1777324103683,764
1777324103685,823
1777324103687,916
1777324103689,1035
1777324103691,1215
1777324103693,1423
1777324103675,1636
1777324103677,1824
1777324103679,1967
1777324103681,2078
1777324103683,2119
1777324103685,2093
1777324103687,1993
1777324103689,1816
1777324103691,1595
1777324103693,1325
1777324103697,1032
1777324103699,764
1777324103701,248
1777324103703,8
1777324103705,10
1777324103707,16
1777324103709,15
1777324103711,9
1777324103713,14
1777324103715,11
1777324103697,14
1777324103699,13
1777324103701,12
1777324103703,63
1777324103705,12
1777324103707,15
1777324103709,13
1777324103711,11
1777324103713,7
1777324103715,7
1777324103753,3
1777324103755,9
1777324103757,6
1777324103759,5
1777324103761,11
1777324103763,14
1777324103765,15
1777324103767,13
1777324103769,12
1777324103771,12
1777324103753,13
1777324103755,13
1777324103757,12
1777324103759,10
1777324103761,13
1777324103763,15
1777324103765,14
1777324103767,13
1777324103769,8
1777324103771,10
1777324103753,8
1777324103755,3
1777324103757,8
1777324103759,5
1777324103761,12
1777324103763,14
1777324103765,14
1777324103767,13
1777324103769,11
1777324103771,12
1777324103802,14
1777324103804,13
1777324103806,13
1777324103808,11
1777324103810,14
1777324103812,17
1777324103814,15
1777324103816,12
1777324103818,7
1777324103820,8
1777324103802,1
1777324103804,10
1777324103806,7
1777324103808,6
1777324103810,12
1777324103812,12
1777324103814,14
1777324103816,12
1777324103818,12
1777324103820,12
1777324103850,11
1777324103852,14
1777324103854,14
1777324103856,11
1777324103858,13
1777324103860,12
1777324103862,16
1777324103864,13
1777324103866,7
1777324103868,10
1777324103850,9
1777324103852,5
1777324103854,7
1777324103856,3
1777324103858,13
1777324103860,12
1777324103862,16
1777324103864,14
1777324103866,11
1777324103868,10
1777324103885,14
1777324103887,12
1777324103889,13
1777324103891,13
1777324103893,11
1777324103895,13
1777324103897,14
1777324103899,11
1777324103901,7
1777324103903,11
1777324103885,2
1777324103887,12
1777324103889,9
1777324103891,5
1777324103893,13
1777324103895,14
1777324103897,14
1777324103899,12
1777324103901,12
1777324103903,13
1777324103885,11
1777324103887,14
1777324103889,13
1777324103891,10
1777324103893,12
1777324103895,13
1777324103897,13
1777324103899,12
1777324103901,7
1777324103903,9
1777324103922,9
1777324103924,2
1777324103926,6
1777324103928,9
1777324103930,6
1777324103932,13
1777324103934,14
1777324103936,11
1777324103938,11
1777324103940,12
1777324103922,14
1777324103924,13
1777324103926,12
1777324103928,11
1777324103930,11
1777324103932,14
1777324103934,14
1777324103936,12
1777324103938,9
1777324103940,10
1777324103975,1
1777324103977,13
1777324103979,7
1777324103981,9
1777324103983,8
1777324103985,14
1777324103987,15
1777324103989,14
1777324103991,13
1777324103993,12
1777324103975,11
1777324103977,15
1777324103979,11
1777324103981,10
1777324103983,12
1777324103985,14
1777324103987,15
1777324103989,12
1777324103991,8
1777324103993,8
1777324104012,7
1777324104014,3
1777324104016,8
1777324104018,5
1777324104020,12
1777324104022,13
1777324104024,15
1777324104026,12
1777324104028,14
1777324104030,11
1777324104012,13
1777324104014,12
1777324104016,13
1777324104018,10
1777324104020,12
1777324104022,12
1777324104024,16
1777324104026,11
1777324104028,9
1777324104030,8
1777324104071,2
1777324104073,9
1777324104075,7
1777324104077,4
1777324104079,13
1777324104081,14
1777324104083,16
1777324104085,11
1777324104087,11
1777324104089,14
1777324104071,11
1777324104073,16
1777324104075,14
1777324104077,11
1777324104079,12
1777324104081,14
1777324104083,14
1777324104085,14
1777324104087,8
1777324104089,10
1777324104102,10
1777324104104,4
1777324104106,8
1777324104108,7
1777324104110,10
1777324104112,14
1777324104114,16
1777324104116,13
1777324104118,12
1777324104120,11
1777324104102,11
1777324104104,13
1777324104106,13
1777324104108,12
1777324104110,13
1777324104112,13
1777324104114,15
1777324104116,11
1777324104118,8
1777324104120,7
1777324104102,3
1777324104104,11
1777324104106,8
1777324104108,5
1777324104110,14
1777324104112,12
1777324104114,14
1777324104116,13
1777324104118,11
1777324104120,13
1777324104147,9
1777324104149,17
1777324104151,13
1777324104153,11
1777324104155,13
1777324104157,14
1777324104159,15
1777324104161,12
1777324104163,12
1777324104165,9
1777324104147,20
1777324104149,13
1777324104151,47
1777324104153,48
1777324104155,36
1777324104157,63
1777324104159,86
1777324104161,91
1777324104163,105
1777324104165,156
1777324104199,216
1777324104201,229
1777324104203,189
1777324104205,145
1777324104207,121
1777324104209,122
1777324104211,177
1777324104213,240
1777324104215,336
1777324104217,452
1777324104199,743
1777324104201,558
1777324104203,582
1777324104205,561
1777324104207,391
1777324104209,328
1777324104211,292
1777324104213,292
1777324104215,345
1777324104217,401
1777324104237,428
1777324104239,443
1777324104241,436
1777324104243,418
1777324104245,398
1777324104247,383
1777324104249,401
1777324104251,448
1777324104253,538
1777324104255,650
1777324104237,728
1777324104239,947
1777324104241,727
1777324104243,627
1777324104245,512
1777324104247,424
1777324104249,449
1777324104251,495
1777324104253,584
1777324104255,681
1777324104295,756
1777324104297,789
1777324104299,761
1777324104301,708
1777324104303,664
1777324104305,617
1777324104307,591
1777324104309,606
1777324104311,684
1777324104313,773
1777324104295,1025
1777324104297,804
1777324104299,798
1777324104301,747
1777324104303,603
1777324104305,588
1777324104307,621
1777324104309,668
1777324104311,747
1777324104313,854
1777324104295,946
1777324104297,1003
1777324104299,1006
1777324104301,988
1777324104303,942
1777324104305,870
1777324104307,832
1777324104309,848
1777324104311,931
1777324104313,1042
1777324104327,1177
1777324104329,1341
1777324104331,1152
1777324104333,979
1777324104335,958
1777324104337,761
1777324104339,757
1777324104341,804
1777324104343,911
1777324104345,1045
1777324104327,1166
1777324104329,1244
1777324104331,1269
1777324104333,1259
1777324104335,1236
1777324104337,1203
1777324104339,1192
1777324104341,1201
1777324104343,1266
1777324104345,1356
1777324104372,1643
1777324104374,1432
1777324104376,1454
1777324104378,1434
1777324104380,1281
1777324104382,1236
1777324104384,1238
1777324104386,1276
1777324104388,1378
1777324104390,1504
1777324104372,1622
1777324104374,1700
1777324104376,1699
1777324104378,1636
1777324104380,1542
1777324104382,1441
1777324104384,1377
1777324104386,1360
1777324104388,1430
1777324104390,1555
1777324104422,1685
1777324104424,1847
1777324104426,1729
1777324104428,1752
1777324104430,1608
1777324104432,1565
1777324104434,1574
1777324104436,1618
1777324104438,1721
1777324104440,1843
1777324104422,1952
1777324104424,2013
1777324104426,1998
1777324104428,1916
1777324104430,1818
1777324104432,1724
1777324104434,1663
1777324104436,1652
1777324104438,1714
1777324104440,1838
1777324104462,2190
1777324104464,2080
1777324104466,2178
1777324104468,2228
1777324104470,2140
1777324104472,2109
1777324104474,2073
1777324104476,2034
1777324104478,2014
1777324104480,2028
1777324104462,2018
1777324104464,2025
1777324104466,2037
1777324104468,2050
1777324104470,2066
1777324104472,2062
1777324104474,2072
1777324104476,2094
1777324104478,2146
1777324104480,2234
1777324104462,2355
1777324104464,2515
1777324104466,2366
1777324104468,2276
1777324104470,2106
1777324104472,1997
1777324104474,1980
1777324104476,2025
1777324104478,2116
1777324104480,2214
1777324104518,2271
1777324104520,2269
1777324104522,2192
1777324104524,2098
1777324104526,2023
1777324104528,1991
1777324104530,2018
1777324104532,2103
1777324104534,2219
1777324104536,2311
1777324104518,2556
1777324104520,2356
1777324104522,2366
1777324104524,2361
1777324104526,2224
1777324104528,2217
1777324104530,2261
1777324104532,2310
1777324104534,2351
1777324104536,2368
1777324104552,2362
1777324104554,2337
1777324104556,2294
1777324104558,2263
1777324104560,2246
1777324104562,2252
1777324104564,2317
1777324104566,2393
1777324104568,2471
1777324104570,2557
1777324104552,2654
1777324104554,2765
1777324104556,2597
1777324104558,2543
1777324104560,2396
1777324104562,2346
1777324104564,2338
1777324104566,2384
1777324104568,2470
1777324104570,2605
1777324104597,2735
1777324104599,2846
1777324104601,2926
1777324104603,3011
1777324104605,3145
1777324104607,3310
1777324104609,3482
1777324104611,3718
1777324104613,4024
1777324104615,4095
1777324104597,4095
1777324104599,4095
1777324104601,4095
1777324104603,4095
1777324104605,4072
1777324104607,3726
1777324104609,3278
1777324104611,2872
1777324104613,2562
1777324104615,2396
1777324104597,2310
1777324104599,2268
1777324104601,2230
1777324104603,2183
1777324104605,2109
1777324104607,2023
1777324104609,2010
1777324104611,2073
1777324104613,2180
1777324104615,2319
1777324104648,2426
1777324104650,2704
1777324104652,2621
1777324104654,2596
1777324104656,2723
1777324104658,2656
1777324104660,2699
1777324104662,2769
1777324104664,2849
1777324104666,2931
1777324104648,2962
1777324104650,2979
1777324104652,2971
1777324104654,2926
1777324104656,2877
1777324104658,2838
1777324104660,2807
1777324104662,2787
1777324104664,2778
1777324104666,2797
1777324104688,3035
1777324104690,2911
1777324104692,3016
1777324104694,2999
1777324104696,3116
1777324104698,3015
1777324104700,2998
1777324104702,2998
1777324104704,3023
1777324104706,3049
1777324104688,3055
1777324104690,3066
1777324104692,3055
1777324104694,3023
1777324104696,2981
1777324104698,2941
1777324104700,2928
1777324104702,2962
1777324104704,3046
1777324104706,3167
1777324104742,3292
1777324104744,3422
1777324104746,3285
1777324104748,3262
1777324104750,3140
1777324104752,3095
1777324104754,3068
1777324104756,3057
1777324104758,3094
1777324104760,3161
1777324104742,3218
1777324104744,3254
1777324104746,3273
1777324104748,3269
1777324104750,3259
1777324104752,3227
1777324104754,3210
1777324104756,3239
1777324104758,3298
1777324104760,3367
1777324104777,3607
1777324104779,3369
1777324104781,3397
1777324104783,3415
1777324104785,3295
1777324104787,3252
1777324104789,3235
1777324104791,3288
1777324104793,3380
1777324104795,3496
1777324104777,3612
1777324104779,3707
1777324104781,3752
1777324104783,3766
1777324104785,3766
1777324104787,3726
1777324104789,3702
1777324104791,3722
1777324104793,3734
1777324104795,3748
1777324104822,3793
1777324104824,3928
1777324104826,3793
1777324104828,3798
1777324104830,3684
1777324104832,3690
1777324104834,3729
1777324104836,3793
1777324104838,3880
1777324104840,4021
1777324104822,4094
1777324104824,4095
1777324104826,4092
1777324104828,4038
1777324104830,3951
1777324104832,3847
1777324104834,3761
1777324104836,3718
1777324104838,3708
1777324104840,3749
1777324104822,4014
1777324104824,3834
1777324104826,3877
1777324104828,3861
1777324104830,3671
1777324104832,3582
1777324104834,3476
1777324104836,3400
1777324104838,3395
1777324104840,3459
1777324104870,3535
1777324104872,3606
1777324104874,3627
1777324104876,3569
1777324104878,3492
1777324104880,3404
1777324104882,3336
1777324104884,3318
1777324104886,3350
1777324104888,3413
1777324104870,3491
1777324104872,3589
1777324104874,3409
1777324104876,3372
1777324104878,3285
1777324104880,3203
1777324104882,3147
1777324104884,3143
1777324104886,3183
1777324104888,3246
1777324104912,3275
1777324104914,3264
1777324104916,3239
1777324104918,3169
1777324104920,3101
1777324104922,3060
1777324104924,3067
1777324104926,3109
1777324104928,3158
1777324104930,3206
1777324104912,3433
1777324104914,3222
1777324104916,3253
1777324104918,3245
1777324104920,3101
1777324104922,3051
1777324104924,3018
1777324104926,3016
1777324104928,3040
1777324104930,3094
1777324104967,3178
1777324104969,3239
1777324104971,3267
1777324104973,3274
1777324104975,3264
1777324104977,3200
1777324104979,3106
1777324104981,3046
1777324104983,3031
1777324104985,3051
1777324104967,3048
1777324104969,3245
1777324104971,3112
1777324104973,3106
1777324104975,3023
1777324104977,2941
1777324104979,2892
1777324104981,2882
1777324104983,2924
1777324104985,3012
1777324105002,3098
1777324105004,3168
1777324105006,3213
1777324105008,3201
1777324105010,3143
1777324105012,3064
1777324105014,3014
1777324105016,3006
1777324105018,3028
1777324105020,3083
1777324105002,3348
1777324105004,3192
1777324105006,3228
1777324105008,3229
1777324105010,3096
1777324105012,3057
1777324105014,3016
1777324105016,3025
1777324105018,3081
1777324105020,3157
1777324105002,3238
1777324105004,3300
1777324105006,3286
1777324105008,3219
1777324105010,3151
1777324105012,3092
1777324105014,3072
1777324105016,3108
1777324105018,3172
1777324105020,3272
1777324105047,3389
1777324105049,3529
1777324105051,3380
1777324105053,3241
1777324105055,3267
1777324105057,3117
1777324105059,3061
1777324105061,3029
1777324105063,3056
1777324105065,3143
1777324105047,3210
1777324105049,3247
1777324105051,3262
1777324105053,3227
1777324105055,3153
1777324105057,3075
1777324105059,3021
1777324105061,3010
1777324105063,3053
1777324105065,3153
1777324105095,3445
1777324105097,3319
1777324105099,3430
1777324105101,3456
1777324105103,3285
1777324105105,3141
1777324105107,3021
1777324105109,2965
1777324105111,2983
1777324105113,3062
1777324105095,3162
1777324105097,3235
1777324105099,3276
1777324105101,3272
1777324105103,3235
1777324105105,3175
1777324105107,3119
1777324105109,3092
1777324105111,3095
1777324105113,3158
1777324105137,3294
1777324105139,3478
1777324105141,3362
1777324105143,3324
1777324105145,3156
1777324105147,3073
1777324105149,3028
1777324105151,3036
1777324105153,3106
1777324105155,3203
1777324105137,3280
1777324105139,3310
1777324105141,3302
1777324105143,3280
1777324105145,3265
1777324105147,3221
1777324105149,3156
1777324105151,3112
1777324105153,3141
1777324105155,3249
1777324105192,3495
1777324105194,3456
1777324105196,3441
1777324105198,3412
1777324105200,3222
1777324105202,3139
1777324105204,3095
1777324105206,3130
1777324105208,3206
1777324105210,3272
1777324105192,3290
1777324105194,3298
1777324105196,3281
1777324105198,3221
1777324105200,3125
1777324105202,3034
1777324105204,2965
1777324105206,2963
1777324105208,3024
1777324105210,3141
1777324105192,3296
1777324105194,3500
1777324105196,3419
1777324105198,3421
1777324105200,3252
1777324105202,3169
1777324105204,3115
1777324105206,3136
1777324105208,3197
1777324105210,3254
1777324105227,3333
1777324105229,3424
1777324105231,3500
1777324105233,3526
1777324105235,3497
1777324105237,3440
1777324105239,3367
1777324105241,3326
1777324105243,3322
1777324105245,3338
1777324105227,3564
1777324105229,3348
1777324105231,3399
1777324105233,3452
1777324105235,3388
1777324105237,3392
1777324105239,3342
1777324105241,3284
1777324105243,3261
1777324105245,3281
1777324105289,3307
1777324105291,3319
1777324105293,3338
1777324105295,3347
1777324105297,3342
1777324105299,3315
1777324105301,3287
1777324105303,3289
1777324105305,3336
1777324105307,3407
1777324105289,3494
1777324105291,3600
1777324105293,3456
1777324105295,3477
1777324105297,3372
1777324105299,3303
1777324105301,3241
1777324105303,3209
1777324105305,3224
1777324105307,3290
1777324105326,3374
1777324105328,3431
1777324105330,3474
1777324105332,3495
1777324105334,3479
1777324105336,3413
1777324105338,3333
1777324105340,3283
1777324105342,3282
1777324105344,3317
1777324105326,3545
1777324105328,3340
1777324105330,3382
1777324105332,3414
1777324105334,3306
1777324105336,3298
1777324105338,3291
1777324105340,3282
1777324105342,3252
1777324105344,3223
1777324105326,3214
1777324105328,3209
1777324105330,3179
1777324105332,3156
1777324105334,3140
1777324105336,3131
1777324105338,3136
1777324105340,3175
1777324105342,3230
1777324105344,3315
1777324105363,3388
1777324105365,3651
1777324105367,3470
1777324105369,3334
1777324105371,3291
1777324105373,3073
1777324105375,2985
1777324105377,2975
1777324105379,3061
1777324105381,3201
1777324105363,3343
1777324105365,3441
1777324105367,3476
1777324105369,3448
1777324105371,3381
1777324105373,3307
1777324105375,3283
1777324105377,3329
1777324105379,3395
1777324105381,3416
1777324105423,3595
1777324105425,3359
1777324105427,3387
1777324105429,3322
1777324105431,3319
1777324105433,3176
1777324105435,3130
1777324105437,3125
1777324105439,3158
1777324105441,3235
1777324105423,3328
1777324105425,3387
1777324105427,3415
1777324105429,3411
1777324105431,3369
1777324105433,3304
1777324105435,3234
1777324105437,3161
1777324105439,3121
1777324105441,3128
1777324105455,3176
1777324105457,3275
1777324105459,3154
1777324105461,3191
1777324105463,3104
1777324105465,3102
1777324105467,3082
1777324105469,3069
1777324105471,3105
1777324105473,3171
1777324105455,3248
1777324105457,3308
1777324105459,3323
1777324105461,3289
1777324105463,3216
1777324105465,3145
1777324105467,3107
1777324105469,3102
1777324105471,3121
1777324105473,3173
1777324105519,3434
1777324105521,3262
1777324105523,3296
1777324105525,3307
1777324105527,3146
1777324105529,3071
1777324105531,3007
1777324105533,2988
1777324105535,3041
1777324105537,3141
1777324105519,3231
1777324105521,3284
1777324105523,3307
1777324105525,3331
1777324105527,3387
1777324105529,3502
1777324105531,3667
1777324105533,3844
1777324105535,4027
1777324105537,4095
1777324105551,4095
1777324105553,4095
1777324105555,4095
1777324105557,4095
1777324105559,4095
1777324105561,4095
1777324105563,4095
1777324105565,4095
1777324105567,4095
1777324105569,4095
1777324105551,4024
1777324105553,3581
1777324105555,3144
1777324105557,2812
1777324105559,2562
1777324105561,2385
1777324105563,2278
1777324105565,2265
1777324105567,2356
1777324105569,2519
1777324105551,2884
1777324105553,2788
1777324105555,2873
1777324105557,2907
1777324105559,2784
1777324105561,2723
1777324105563,2680
1777324105565,2713
1777324105567,2798
1777324105569,2905
1777324105587,3003
1777324105589,3068
1777324105591,3088
1777324105593,3079
1777324105595,3032
1777324105597,2954
1777324105599,2904
1777324105601,2895
1777324105603,2931
1777324105605,2986
1777324105587,3074
1777324105589,3217
1777324105591,3124
1777324105593,3168
1777324105595,3036
1777324105597,2995
1777324105599,2966
1777324105601,2962
1777324105603,2991
1777324105605,3033
1777324105648,3094
1777324105650,3144
1777324105652,3162
1777324105654,3139
1777324105656,3074
1777324105658,2980
1777324105660,2894
1777324105662,2872
1777324105664,2952
1777324105666,3060
1777324105648,3326
1777324105650,3142
1777324105652,3176
1777324105654,3208
1777324105656,3101
1777324105658,3063
1777324105660,3046
1777324105662,3064
1777324105664,3137
1777324105666,3216
1777324105679,3259
1777324105681,3248
1777324105683,3195
1777324105685,3125
1777324105687,3030
1777324105689,2980
1777324105691,2977
1777324105693,3011
1777324105695,3077
1777324105697,3109
1777324105679,3131
1777324105681,3364
1777324105683,3251
1777324105685,3313
1777324105687,3358
1777324105689,3361
1777324105691,3362
1777324105693,3351
1777324105695,3370
1777324105697,3391
1777324105743,3376
1777324105745,3326
1777324105747,3258
1777324105749,3209
1777324105751,3183
1777324105753,3176
1777324105755,3185
1777324105757,3240
1777324105759,3354
1777324105761,3505
1777324105743,3860
1777324105745,3697
1777324105747,3746
1777324105749,3742
1777324105751,3549
1777324105753,3439
1777324105755,3366
1777324105757,3347
1777324105759,3393
1777324105761,3469
1777324105743,3528
1777324105745,3603
1777324105747,3676
1777324105749,3724
1777324105751,3726
1777324105753,3653
1777324105755,3563
1777324105757,3544
1777324105759,3560
1777324105761,3592
1777324105768,3664
1777324105770,3788
1777324105772,3624
1777324105774,3518
1777324105776,3561
1777324105778,3366
1777324105780,3279
1777324105782,3249
1777324105784,3296
1777324105786,3374
1777324105768,3422
1777324105770,3427
1777324105772,3388
1777324105774,3321
1777324105776,3239
1777324105778,3140
1777324105780,3050
1777324105782,3007
1777324105784,2999
1777324105786,3008
1777324105812,3213
1777324105814,3011
1777324105816,3039
1777324105818,3045
1777324105820,2906
1777324105822,2840
1777324105824,2788
1777324105826,2777
1777324105828,2828
1777324105830,2938
1777324105812,3068
1777324105814,3137
1777324105816,3141
1777324105818,3105
1777324105820,3012
1777324105822,2891
1777324105824,2785
1777324105826,2744
1777324105828,2767
1777324105830,2796
1777324105863,2859
1777324105865,2985
1777324105867,2858
1777324105869,2858
1777324105871,2711
1777324105873,2665
1777324105875,2672
1777324105877,2710
1777324105879,2782
1777324105881,2820
1777324105863,2827
1777324105865,2847
1777324105867,2889
1777324105869,2925
1777324105871,2913
1777324105873,2837
1777324105875,2762
1777324105877,2717
1777324105879,2696
1777324105881,2714
1777324105902,2957
1777324105904,2797
1777324105906,2857
1777324105908,2898
1777324105910,2746
1777324105912,2640
1777324105914,2556
1777324105916,2542
1777324105918,2589
1777324105920,2690
1777324105902,2796
1777324105904,2865
1777324105906,2862
1777324105908,2828
1777324105910,2801
1777324105912,2778
1777324105914,2748
1777324105916,2730
1777324105918,2763
1777324105920,2818
1777324105902,2878
1777324105904,2972
1777324105906,2830
1777324105908,2860
1777324105910,2745
1777324105912,2713
1777324105914,2703
1777324105916,2715
1777324105918,2755
1777324105920,2827
1777324105959,2898
1777324105961,2953
1777324105963,2967
1777324105965,2934
1777324105967,2853
1777324105969,2725
1777324105971,2620
1777324105973,2577
1777324105975,2614
1777324105977,2699
1777324105959,2993
1777324105961,2852
1777324105963,2904
1777324105965,2897
1777324105967,2743
1777324105969,2667
1777324105971,2632
1777324105973,2651
1777324105975,2743
1777324105977,2860
1777324105992,2923
1777324105994,2932
1777324105996,2896
1777324105998,2858
1777324106000,2807
1777324106002,2731
1777324106004,2696
1777324106006,2708
1777324106008,2760
1777324106010,2851
1777324105992,2958
1777324105994,3084
1777324105996,2951
1777324105998,2958
1777324106000,2794
1777324106002,2691
1777324106004,2614
1777324106006,2606
1777324106008,2675
1777324106010,2793
1777324106037,2888
1777324106039,2941
1777324106041,2929
1777324106043,2890
1777324106045,2838
1777324106047,2754
1777324106049,2667
1777324106051,2657
1777324106053,2739
1777324106055,2871
1777324106037,3152
1777324106039,2974
1777324106041,2950
1777324106043,2854
1777324106045,2643
1777324106047,2554
1777324106049,2525
1777324106051,2562
1777324106053,2633
1777324106055,2717
1777324106037,2809
1777324106039,2919
1777324106041,2995
1777324106043,3032
1777324106045,3012
1777324106047,2924
1777324106049,2813
1777324106051,2713
1777324106053,2661
1777324106055,2670
1777324106087,2684
1777324106089,2906
1777324106091,2770
1777324106093,2716
1777324106095,2762
1777324106097,2604
1777324106099,2608
1777324106101,2674
1777324106103,2773
1777324106105,2859
1777324106087,2903
1777324106089,2928
1777324106091,2937
1777324106093,2917
1777324106095,2891
1777324106097,2815
1777324106099,2716
1777324106101,2657
1777324106103,2686
1777324106105,2790
1777324106130,3067
1777324106132,2889
1777324106134,2910
1777324106136,2835
1777324106138,2836
1777324106140,2685
1777324106142,2635
1777324106144,2632
1777324106146,2704
1777324106148,2817
1777324106130,2895
1777324106132,2941
1777324106134,2922
1777324106136,2868
1777324106138,2823
1777324106140,2750
1777324106142,2690
1777324106144,2694
1777324106146,2761
1777324106148,2868
1777324106183,2969
1777324106185,3212
1777324106187,3072
1777324106189,2982
1777324106191,3046
1777324106193,2866
1777324106195,2775
1777324106197,2706
1777324106199,2694
1777324106201,2725
1777324106183,2753
1777324106185,2802
1777324106187,2864
1777324106189,2900
1777324106191,2911
1777324106193,2895
1777324106195,2866
1777324106197,2855
1777324106199,2881
1777324106201,2946
1777324106217,3190
1777324106219,3019
1777324106221,3085
1777324106223,3092
1777324106225,2967
1777324106227,2888
1777324106229,2825
1777324106231,2792
1777324106233,2809
1777324106235,2853
1777324106217,2882
1777324106219,2917
1777324106221,2926
1777324106223,2929
1777324106225,2938
1777324106227,2925
1777324106229,2916
1777324106231,2920
1777324106233,2952
1777324106235,3004
1777324106262,3048
1777324106264,3127
1777324106266,2972
1777324106268,2966
1777324106270,2928
1777324106272,2919
1777324106274,2926
1777324106276,2935
1777324106278,2949
1777324106280,2993
1777324106262,3035
1777324106264,3053
1777324106266,3022
1777324106268,2984
1777324106270,2964
1777324106272,2924
1777324106274,2877
1777324106276,2858
1777324106278,2901
1777324106280,2990
1777324106262,3264
1777324106264,3077
1777324106266,3092
1777324106268,3027
1777324106270,2869
1777324106272,2709
1777324106274,2592
1777324106276,2543
1777324106278,2591
1777324106280,2725
1777324106311,2856
1777324106313,2978
1777324106315,3061
1777324106317,3075
1777324106319,3046
1777324106321,2939
1777324106323,2822
1777324106325,2753
1777324106327,2743
1777324106329,2801
1777324106312,2900
1777324106314,3020
1777324106316,2872
1777324106318,2848
1777324106320,2771
1777324106322,2719
1777324106324,2716
1777324106326,2752
1777324106328,2830
1777324106330,2934
1777324106352,2999
1777324106354,3039
1777324106356,3062
1777324106358,3073
1777324106360,3054
1777324106362,2951
1777324106364,2829
1777324106366,2763
1777324106368,2780
1777324106370,2860
1777324106352,3139
1777324106354,2992
1777324106356,3080
1777324106358,3118
1777324106360,3027
1777324106362,2979
1777324106364,2927
1777324106366,2882
1777324106368,2900
1777324106370,2991
1777324106408,3111
1777324106410,3245
1777324106412,3370
1777324106414,3516
1777324106416,3705
1777324106418,3901
1777324106420,4060
1777324106422,4095
1777324106424,4095
1777324106426,4095
1777324106408,4095
1777324106410,4095
1777324106412,4095
1777324106414,4095
1777324106416,4095
1777324106418,4095
1777324106420,3918
1777324106422,3442
1777324106424,3070
1777324106426,2816
1777324106442,2585
1777324106444,2386
1777324106446,2252
1777324106448,2183
1777324106450,2161
1777324106452,2136
1777324106454,2158
1777324106456,2252
1777324106458,2384
1777324106460,2556
1777324106442,2890
1777324106444,2786
1777324106446,2849
1777324106448,2863
1777324106450,2767
1777324106452,2721
1777324106454,2685
1777324106456,2669
1777324106458,2680
1777324106460,2740
1777324106442,2808
1777324106444,2868
1777324106446,2892
1777324106448,2887
1777324106450,2878
1777324106452,2833
1777324106454,2794
1777324106456,2771
1777324106458,2766
1777324106460,2799
1777324106487,2886
1777324106489,3050
1777324106491,2980
1777324106493,2937
1777324106495,3048
1777324106497,2942
1777324106499,2899
1777324106501,2874
1777324106503,2888
1777324106505,2924
1777324106487,2932
1777324106489,2930
1777324106491,2939
1777324106493,2933
1777324106495,2936
1777324106497,2907
1777324106499,2862
1777324106501,2849
1777324106503,2882
1777324106505,2954
1777324106536,3197
1777324106538,3006
1777324106540,3073
1777324106542,3118
1777324106544,3041
1777324106546,2990
1777324106548,2936
1777324106550,2909
1777324106552,2924
1777324106554,3025
1777324106536,3125
1777324106538,3173
1777324106540,3152
1777324106542,3116
1777324106544,3099
1777324106546,3071
1777324106548,3014
1777324106550,2946
1777324106552,2921
1777324106554,2984
1777324106577,3090
1777324106579,3216
1777324106581,3105
1777324106583,3121
1777324106585,3091
1777324106587,3078
1777324106589,3069
1777324106591,3059
1777324106593,3065
1777324106595,3127
1777324106577,3210
1777324106579,3265
1777324106581,3288
1777324106583,3299
1777324106585,3317
1777324106587,3291
1777324106589,3252
1777324106591,3228
1777324106593,3260
1777324106595,3366
1777324106632,3687
1777324106634,3558
1777324106636,3697
1777324106638,3750
1777324106640,3591
1777324106642,3427
1777324106644,3284
1777324106646,3224
1777324106648,3263
1777324106650,3351
1777324106632,3418
1777324106634,3447
1777324106636,3424
1777324106638,3378
1777324106640,3362
1777324106642,3356
1777324106644,3379
1777324106646,3435
1777324106648,3497
1777324106650,3539
1777324106632,3557
1777324106634,3599
1777324106636,3398
1777324106638,3311
1777324106640,3132
1777324106642,2988
1777324106644,2910
1777324106646,2895
1777324106648,2944
1777324106650,3043
1777324106667,3116
1777324106669,3132
1777324106671,3126
1777324106673,3078
1777324106675,3002
1777324106677,2903
1777324106679,2810
1777324106681,2778
1777324106683,2807
1777324106685,2876
1777324106667,3125
1777324106669,2929
1777324106671,2964
1777324106673,2950
1777324106675,2878
1777324106677,2824
1777324106679,2785
1777324106681,2770
1777324106683,2782
1777324106685,2837
1777324106728,2880
1777324106730,2891
1777324106732,2890
1777324106734,2867
1777324106736,2833
1777324106738,2766
1777324106740,2685
1777324106742,2633
1777324106744,2636
1777324106746,2708
1777324106728,2833
1777324106730,3019
1777324106732,2964
1777324106734,2978
1777324106736,2860
1777324106738,2739
1777324106740,2644
1777324106742,2596
1777324106744,2602
1777324106746,2693
1777324106761,2814
1777324106763,2894
1777324106765,2940
1777324106767,2943
1777324106769,2928
1777324106771,2883
1777324106773,2834
1777324106775,2824
1777324106777,2864
1777324106779,2927
1777324106761,3150
1777324106763,2911
1777324106765,2857
1777324106767,2797
1777324106769,2657
1777324106771,2599
1777324106773,2562
1777324106775,2573
1777324106777,2642
1777324106779,2763
1777324106761,2859
1777324106763,2914
1777324106765,2931
1777324106767,2919
1777324106769,2899
1777324106771,2834
1777324106773,2744
1777324106775,2688
1777324106777,2663
1777324106779,2694
1777324106802,2725
1777324106804,2940
1777324106806,2835
1777324106808,2798
1777324106810,2897
1777324106812,2778
1777324106814,2719
1777324106816,2689
1777324106818,2745
1777324106820,2843
1777324106802,2924
1777324106804,2953
1777324106806,2941
1777324106808,2889
1777324106810,2836
1777324106812,2777
1777324106814,2737
1777324106816,2757
1777324106818,2816
1777324106820,2900
1777324106857,3130
1777324106859,2904
1777324106861,2900
1777324106863,2817
1777324106865,2833
1777324106867,2673
1777324106869,2611
1777324106871,2611
1777324106873,2654
1777324106875,2739
1777324106857,2836
1777324106859,2915
1777324106861,2949
1777324106863,2943
1777324106865,2907
1777324106867,2845
1777324106869,2764
1777324106871,2708
1777324106873,2702
1777324106875,2757
1777324106893,2880
1777324106895,3043
1777324106897,2937
1777324106899,2891
1777324106901,2840
1777324106903,2777
1777324106905,2745
1777324106907,2725
1777324106909,2731
1777324106911,2805
1777324106893,2883
1777324106895,2890
1777324106897,2861
1777324106899,2831
1777324106901,2833
1777324106903,2808
1777324106905,2762
1777324106907,2770
1777324106909,2830
1777324106911,2914
1777324106952,3181
1777324106954,3018
1777324106956,3057
1777324106958,3034
1777324106960,2908
1777324106962,2847
1777324106964,2775
1777324106966,2712
1777324106968,2718
1777324106970,2808
1777324106952,2917
1777324106954,2978
1777324106956,2998
1777324106958,2982
1777324106960,2959
1777324106962,2927
1777324106964,2895
1777324106966,2915
1777324106968,2989
1777324106970,3095
1777324106985,3205
1777324106987,3272
1777324106989,3066
1777324106991,2986
1777324106993,2849
1777324106995,2756
1777324106997,2699
1777324106999,2730
1777324107001,2833
1777324107003,2946
1777324106985,3003
1777324106987,3000
1777324106989,2954
1777324106991,2882
1777324106993,2830
1777324106995,2780
1777324106997,2745
1777324106999,2755
1777324107001,2802
1777324107003,2879
1777324106985,3144
1777324106987,2949
1777324106989,2983
1777324106991,2977
1777324106993,2865
1777324106995,2804
1777324106997,2729
1777324106999,2689
1777324107001,2725
1777324107003,2843
1777324107035,2976
1777324107037,3053
1777324107039,3069
1777324107041,3048
1777324107043,3014
1777324107045,2955
1777324107047,2878
1777324107049,2828
1777324107051,2843
1777324107053,2909
1777324107035,3017
1777324107037,3141
1777324107039,3011
1777324107041,2981
1777324107043,2880
1777324107045,2833
1777324107047,2802
1777324107049,2791
1777324107051,2832
1777324107053,2897
1777324107072,2927
1777324107074,2901
1777324107076,2870
1777324107078,2842
1777324107080,2843
1777324107082,2858
1777324107084,2870
1777324107086,2875
1777324107088,2909
1777324107090,2980
1777324107072,3237
1777324107074,3036
1777324107076,3068
1777324107078,3042
1777324107080,2966
1777324107082,2917
1777324107084,2878
1777324107086,2879
1777324107088,2932
1777324107090,3028
1777324107178,3129
1777324107180,3169
1777324107182,3141
1777324107184,3054
1777324107186,2984
1777324107188,2954
1777324107190,2921
1777324107192,2916
1777324107194,2982
1777324107196,3101
1777324107178,3185
1777324107180,3399
1777324107182,3224
1777324107184,3145
1777324107186,3100
1777324107188,2969
1777324107190,2911
1777324107192,2910
1777324107194,2953
1777324107196,3025
1777324107178,3107
1777324107180,3158
1777324107182,3191
1777324107184,3198
1777324107186,3163
1777324107188,3053
1777324107190,2911
1777324107192,2856
1777324107194,2884
1777324107196,2959
1777324107178,3179
1777324107180,3194
1777324107182,3203
1777324107184,3223
1777324107186,3110
1777324107188,3047
1777324107190,2956
1777324107192,2886
1777324107194,2887
1777324107196,2946
1777324107178,3035
1777324107180,3088
1777324107182,3079
1777324107184,3027
1777324107186,2959
1777324107188,2892
1777324107190,2853
1777324107192,2866
1777324107194,2911
1777324107196,2976
1777324107231,3092
1777324107233,3248
1777324107235,3156
1777324107237,3130
1777324107239,3221
1777324107241,3072
1777324107243,2994
1777324107245,2955
1777324107247,2966
1777324107249,3009
1777324107231,3059
1777324107233,3064
1777324107235,3042
1777324107237,3008
1777324107239,2969
1777324107241,2925
1777324107243,2884
1777324107245,2866
1777324107247,2881
1777324107249,2916
1777324107272,3154
1777324107274,2930
1777324107276,2931
1777324107278,2920
1777324107280,2827
1777324107282,2861
1777324107284,2924
1777324107286,3004
1777324107288,3109
1777324107290,3232
1777324107272,3382
1777324107274,3555
1777324107276,3765
1777324107278,4007
1777324107280,4095
1777324107282,4095
1777324107284,4095
1777324107286,4095
1777324107288,4095
1777324107290,4095
1777324107358,4095
1777324107360,4095
1777324107362,4080
1777324107364,3791
1777324107366,3261
1777324107368,2824
1777324107370,2477
1777324107372,2211
1777324107374,2100
1777324107376,2133
1777324107358,2208
1777324107360,2270
1777324107362,2350
1777324107364,2424
1777324107366,2475
1777324107368,2506
1777324107370,2530
1777324107372,2572
1777324107374,2636
1777324107376,2723
1777324107358,2989
1777324107360,2840
1777324107362,2888
1777324107364,2881
1777324107366,2767
1777324107368,2718
1777324107370,2641
1777324107372,2587
1777324107374,2607
1777324107376,2729
1777324107358,2858
1777324107360,2935
1777324107362,2942
1777324107364,2895
1777324107366,2835
1777324107368,2777
1777324107370,2727
1777324107372,2717
1777324107374,2753
1777324107376,2844
1777324107358,2974
1777324107360,3115
1777324107362,2991
1777324107364,2992
1777324107366,2880
1777324107368,2870
1777324107370,2874
1777324107372,2859
1777324107374,2848
1777324107376,2866
1777324107436,2871
1777324107438,2854
1777324107440,2829
1777324107442,2820
1777324107444,2825
1777324107446,2819
1777324107448,2814
1777324107450,2810
1777324107452,2825
1777324107454,2882
1777324107436,3147
1777324107438,3007
1777324107440,3120
1777324107442,3195
1777324107444,3105
1777324107446,3040
1777324107448,2954
1777324107450,2867
1777324107452,2826
1777324107454,2861
1777324107437,2913
1777324107439,2936
1777324107441,2952
1777324107443,2967
1777324107445,2980
1777324107447,2988
1777324107449,2987
1777324107451,2958
1777324107453,2943
1777324107455,2971
1777324107437,3067
1777324107439,3235
1777324107441,3137
1777324107443,3182
1777324107445,3071
1777324107447,3036
1777324107449,3012
1777324107451,2994
1777324107453,3040
1777324107455,3167
1777324107508,3297
1777324107510,3355
1777324107512,3322
1777324107514,3245
1777324107516,3167
1777324107518,3126
1777324107520,3125
1777324107522,3147
1777324107524,3192
1777324107526,3264
1777324107508,3439
1777324107510,3454
1777324107512,3414
1777324107514,3413
1777324107516,3271
1777324107518,3178
1777324107520,3102
1777324107522,3071
1777324107524,3102
1777324107526,3183
1777324107508,3248
1777324107510,3255
1777324107512,3198
1777324107514,3121
1777324107516,3061
1777324107518,3015
1777324107520,2964
1777324107522,2921
1777324107524,2907
1777324107526,2916
1777324107543,2943
1777324107545,3161
1777324107547,2968
1777324107549,2869
1777324107551,2924
1777324107553,2809
1777324107555,2782
1777324107557,2764
1777324107559,2776
1777324107561,2770
1777324107543,2741
1777324107545,2706
1777324107547,2658
1777324107549,2604
1777324107551,2559
1777324107553,2525
1777324107555,2495
1777324107557,2479
1777324107559,2499
1777324107561,2550
1777324107614,2808
1777324107616,2646
1777324107618,2669
1777324107620,2524
1777324107622,2457
1777324107624,2263
1777324107626,2180
1777324107628,2140
1777324107630,2183
1777324107632,2296
1777324107614,2418
1777324107616,2486
1777324107618,2464
1777324107620,2392
1777324107622,2336
1777324107624,2285
1777324107626,2200
1777324107628,2112
1777324107630,2093
1777324107632,2178
1777324107614,2368
1777324107616,2613
1777324107618,2583
1777324107620,2606
1777324107622,2439
1777324107624,2321
1777324107626,2235
1777324107628,2150
1777324107630,2117
1777324107632,2157
1777324107614,2242
1777324107616,2319
1777324107618,2360
1777324107620,2362
1777324107622,2345
1777324107624,2315
1777324107626,2275
1777324107628,2256
1777324107630,2279
1777324107632,2306
1777324107720,2535
1777324107722,2351
1777324107724,2401
1777324107726,2436
1777324107728,2333
1777324107730,2299
1777324107732,2244
1777324107734,2182
1777324107736,2150
1777324107738,2175
1777324107720,2239
1777324107722,2282
1777324107724,2252
1777324107726,2193
1777324107728,2154
1777324107730,2127
1777324107732,2123
1777324107734,2124
1777324107736,2159
1777324107738,2239
1777324107721,2367
1777324107723,2506
1777324107725,2336
1777324107727,2284
1777324107729,2201
1777324107731,2160
1777324107733,2132
1777324107735,2104
1777324107737,2118
1777324107739,2186
1777324107721,2275
1777324107723,2352
1777324107725,2366
1777324107727,2347
1777324107729,2315
1777324107731,2275
1777324107733,2239
1777324107735,2200
1777324107737,2177
1777324107739,2179
1777324107721,2408
1777324107723,2252
1777324107725,2301
1777324107727,2312
1777324107729,2205
1777324107731,2166
1777324107733,2125
1777324107735,2082
1777324107737,2088
1777324107739,2161
1777324107756,2240
1777324107758,2312
1777324107760,2312
1777324107762,2253
1777324107764,2203
1777324107766,2161
1777324107768,2126
1777324107770,2080
1777324107772,2067
1777324107774,2100
1777324107756,2188
1777324107758,2347
1777324107760,2237
1777324107762,2258
1777324107764,2172
1777324107766,2157
1777324107768,2164
1777324107770,2174
1777324107772,2205
1777324107774,2265
1777324107821,2306
1777324107823,2298
1777324107825,2246
1777324107827,2162
1777324107829,2077
1777324107831,1982
1777324107833,1910
1777324107835,1880
1777324107837,1938
1777324107839,2065
1777324107821,2380
1777324107823,2234
1777324107825,2255
1777324107827,2238
1777324107829,2114
1777324107831,2075
1777324107833,2028
1777324107835,1995
1777324107837,2008
1777324107839,2059
1777324107852,2106
1777324107854,2151
1777324107856,2171
1777324107858,2174
1777324107860,2160
1777324107862,2141
1777324107864,2156
1777324107866,2176
1777324107868,2209
1777324107870,2260
1777324107852,2323
1777324107854,2546
1777324107856,2390
1777324107858,2353
1777324107860,2258
1777324107862,2171
1777324107864,2115
1777324107866,2076
1777324107868,2069
1777324107870,2151
1777324107913,2284
1777324107915,2377
1777324107917,2392
1777324107919,2350
1777324107921,2298
1777324107923,2249
1777324107925,2209
1777324107927,2186
1777324107929,2222
1777324107931,2300
1777324107913,2568
1777324107915,2414
1777324107917,2424
1777324107919,2359
1777324107921,2189
1777324107923,2096
1777324107925,2044
1777324107927,2020
1777324107929,2040
1777324107931,2115
1777324107913,2190
1777324107915,2255
1777324107917,2284
1777324107919,2271
1777324107921,2234
1777324107923,2166
1777324107925,2085
1777324107927,2030
1777324107929,2056
1777324107931,2123
1777324107943,2233
1777324107945,2409
1777324107947,2299
1777324107949,2217
1777324107951,2266
1777324107953,2129
1777324107955,2141
1777324107957,2172
1777324107959,2224
1777324107961,2261
1777324107943,2287
1777324107945,2303
1777324107947,2274
1777324107949,2205
1777324107951,2149
1777324107953,2100
1777324107955,2049
1777324107957,2007
1777324107959,2020
1777324107961,2083
1777324107972,2374
1777324107974,2251
1777324107976,2316
1777324107978,2298
1777324107980,2130
1777324107982,2027
1777324107984,1947
1777324107986,1903
1777324107988,1941
1777324107990,2047
1777324107972,2173
1777324107974,2268
1777324107976,2295
1777324107978,2250
1777324107980,2157
1777324107982,2066
1777324107984,2006
1777324107986,1977
1777324107988,1992
1777324107990,2060
1777324108028,2194
1777324108030,2389
1777324108032,2320
1777324108034,2357
1777324108036,2229
1777324108038,2144
1777324108040,2069
1777324108042,2033
1777324108044,2085
1777324108046,2167
1777324108029,2222
1777324108031,2243
1777324108033,2233
1777324108035,2221
1777324108037,2234
1777324108039,2224
1777324108041,2189
1777324108043,2150
1777324108045,2131
1777324108047,2140
1777324108087,2340
1777324108089,2119
1777324108091,2125
1777324108093,2110
1777324108095,2019
1777324108097,2037
1777324108099,2060
1777324108101,2062
1777324108103,2053
1777324108105,2084
1777324108087,2123
1777324108089,2115
1777324108091,2047
1777324108093,1962
1777324108095,1891
1777324108097,1821
1777324108099,1762
1777324108101,1757
1777324108103,1814
1777324108105,1917
1777324108087,2059
1777324108089,2242
1777324108091,2141
1777324108093,2143
1777324108095,2054
1777324108097,1962
1777324108099,1900
1777324108101,1864
1777324108103,1854
1777324108105,1883
1777324108144,1918
1777324108146,1936
1777324108148,1928
1777324108150,1898
1777324108152,1902
1777324108154,1928
1777324108156,1955
1777324108158,1965
1777324108160,1957
1777324108162,1951
1777324108144,2149
1777324108146,1948
1777324108148,1994
1777324108150,2016
1777324108152,1925
1777324108154,1908
1777324108156,1873
1777324108158,1839
1777324108160,1853
1777324108162,1927
1777324108172,1988
1777324108174,2022
1777324108176,2035
1777324108178,2024
1777324108180,2000
1777324108182,1941
1777324108184,1899
1777324108186,1896
1777324108188,1942
1777324108190,2073
1777324108172,2252
1777324108174,2618
1777324108176,2648
1777324108178,2736
1777324108180,2865
1777324108182,2863
1777324108184,2963
1777324108186,3135
1777324108188,3381
1777324108190,3724
1777324108208,4040
1777324108210,4095
1777324108212,4039
1777324108214,3742
1777324108216,3349
1777324108218,2899
1777324108220,2429
1777324108222,1985
1777324108224,1650
1777324108226,1488
1777324108208,1647
1777324108210,1465
1777324108212,1509
1777324108214,1542
1777324108216,1439
1777324108218,1443
1777324108220,1476
1777324108222,1553
1777324108224,1667
1777324108226,1806
1777324108208,1897
1777324108210,1926
1777324108212,1930
1777324108214,1945
1777324108216,1969
1777324108218,1984
1777324108220,2006
1777324108222,2055
1777324108224,2121
1777324108226,2233
1777324108261,2330
1777324108263,2537
1777324108265,2315
1777324108267,2145
1777324108269,2132
1777324108271,1959
1777324108273,1924
1777324108275,1953
1777324108277,2028
1777324108279,2153
1777324108261,2259
1777324108263,2312
1777324108265,2303
1777324108267,2244
1777324108269,2181
1777324108271,2125
1777324108273,2089
1777324108275,2075
1777324108277,2090
1777324108279,2141
1777324108310,2417
1777324108312,2293
1777324108314,2404
1777324108316,2370
1777324108318,2438
1777324108320,2294
1777324108322,2204
1777324108324,2121
1777324108326,2063
1777324108328,2044
1777324108310,2038
1777324108312,2060
1777324108314,2105
1777324108316,2133
1777324108318,2179
1777324108320,2236
1777324108322,2277
1777324108324,2289
1777324108326,2291
1777324108328,2319
1777324108335,2368
1777324108337,2457
1777324108339,2297
1777324108341,2298
1777324108343,2177
1777324108345,2151
1777324108347,2148
1777324108349,2168
1777324108351,2213
1777324108353,2301
1777324108335,2370
1777324108337,2404
1777324108339,2416
1777324108341,2394
1777324108343,2364
1777324108345,2342
1777324108347,2311
1777324108349,2300
1777324108351,2316
1777324108353,2346
1777324108396,2588
1777324108398,2430
1777324108400,2457
1777324108402,2446
1777324108404,2292
1777324108406,2256
1777324108408,2254
1777324108410,2307
1777324108412,2428
1777324108414,2584
1777324108396,2712
1777324108398,2762
1777324108400,2755
1777324108402,2723
1777324108404,2694
1777324108406,2651
1777324108408,2604
1777324108410,2586
1777324108412,2583
1777324108414,2642
1777324108427,2752
1777324108429,2929
1777324108431,2855
1777324108433,2860
1777324108435,2727
1777324108437,2656
1777324108439,2555
1777324108441,2482
1777324108443,2461
1777324108445,2512
1777324108427,2585
1777324108429,2624
1777324108431,2607
1777324108433,2527
1777324108435,2430
1777324108437,2330
1777324108439,2217
1777324108441,2110
1777324108443,2048
1777324108445,2088
1777324108427,2359
1777324108429,2222
1777324108431,2294
1777324108433,2306
1777324108435,2123
1777324108437,1987
1777324108439,1852
1777324108441,1774
1777324108443,1746
1777324108445,1790
1777324108467,1873
1777324108469,1949
1777324108471,1991
1777324108473,1979
1777324108475,1927
1777324108477,1853
1777324108479,1779
1777324108481,1713
1777324108483,1660
1777324108485,1655
1777324108467,1715
1777324108469,1867
1777324108471,1749
1777324108473,1733
1777324108475,1679
1777324108477,1654
1777324108479,1649
1777324108481,1664
1777324108483,1698
1777324108485,1767
1777324108524,1849
1777324108526,1919
1777324108528,1965
1777324108530,1934
1777324108532,1834
1777324108534,1699
1777324108536,1574
1777324108538,1494
1777324108540,1486
1777324108542,1574
1777324108524,1903
1777324108526,1786
1777324108528,1862
1777324108530,1870
1777324108532,1719
1777324108534,1661
1777324108536,1622
1777324108538,1584
1777324108540,1539
1777324108542,1537
1777324108557,1581
1777324108559,1649
1777324108561,1675
1777324108563,1642
1777324108565,1588
1777324108567,1528
1777324108569,1491
1777324108571,1508
1777324108573,1562
1777324108575,1634
1777324108557,1679
1777324108559,1906
1777324108561,1739
1777324108563,1738
1777324108565,1643
1777324108567,1535
1777324108569,1434
1777324108571,1359
1777324108573,1336
1777324108575,1374
1777324108609,1446
1777324108611,1514
1777324108613,1559
1777324108615,1558
1777324108617,1522
1777324108619,1473
1777324108621,1431
1777324108623,1418
1777324108625,1424
1777324108627,1477
1777324108609,1764
1777324108611,1587
1777324108613,1656
1777324108615,1675
1777324108617,1524
1777324108619,1479
1777324108621,1461
1777324108623,1462
1777324108625,1457
1777324108627,1492
1777324108609,1548
1777324108611,1583
1777324108613,1582
1777324108615,1556
1777324108617,1521
1777324108619,1484
1777324108621,1454
1777324108623,1465
1777324108625,1492
1777324108627,1547
1777324108653,1623
1777324108655,1732
1777324108657,1565
1777324108659,1439
1777324108661,1502
1777324108663,1389
1777324108665,1418
1777324108667,1459
1777324108669,1517
1777324108671,1616
1777324108653,1704
1777324108655,1750
1777324108657,1770
1777324108659,1727
1777324108661,1639
1777324108663,1540
1777324108665,1463
1777324108667,1441
1777324108669,1465
1777324108671,1526
1777324108713,1808
1777324108715,1628
1777324108717,1699
1777324108719,1734
1777324108721,1639
1777324108723,1635
1777324108725,1634
1777324108727,1646
1777324108729,1662
1777324108731,1699
1777324108713,1741
1777324108715,1753
1777324108717,1719
1777324108719,1660
1777324108721,1590
1777324108723,1505
1777324108725,1446
1777324108727,1452
1777324108729,1521
1777324108731,1641
1777324108745,1779
1777324108747,1952
1777324108749,1848
1777324108751,1867
1777324108753,1692
1777324108755,1591
1777324108757,1504
1777324108759,1470
1777324108761,1492
1777324108763,1559
1777324108745,1639
1777324108747,1696
1777324108749,1757
1777324108751,1772
1777324108753,1727
1777324108755,1644
1777324108757,1544
1777324108759,1491
1777324108761,1498
1777324108763,1564
1777324108782,1865
1777324108784,1741
1777324108786,1861
1777324108788,1935
1777324108790,1844
1777324108792,1814
1777324108794,1759
1777324108796,1716
1777324108798,1690
1777324108800,1724
1777324108782,1789
1777324108784,1849
1777324108786,1856
1777324108788,1814
1777324108790,1771
1777324108792,1740
1777324108794,1712
1777324108796,1688
1777324108798,1674
1777324108800,1710
1777324108782,1814
1777324108784,1986
1777324108786,1899
1777324108788,1915
1777324108790,1790
1777324108792,1767
1777324108794,1786
1777324108796,1841
1777324108798,1922
1777324108800,1998
1777324108841,2049
1777324108843,2055
1777324108845,2028
1777324108847,1971
1777324108849,1912
1777324108851,1883
1777324108853,1863
1777324108855,1857
1777324108857,1887
1777324108859,1972
1777324108841,2275
1777324108843,2148
1777324108845,2241
1777324108847,2306
1777324108849,2188
1777324108851,2137
1777324108853,2070
1777324108855,2028
1777324108857,2025
1777324108859,2057
1777324108872,2105
1777324108874,2131
1777324108876,2126
1777324108878,2100
1777324108880,2082
1777324108882,2105
1777324108884,2149
1777324108886,2149
1777324108888,2122
1777324108890,2131
1777324108872,2239
1777324108874,2436
1777324108876,2390
1777324108878,2461
1777324108880,2428
1777324108882,2403
1777324108884,2364
1777324108886,2316
1777324108888,2301
1777324108890,2335
1777324108936,2398
1777324108938,2457
1777324108940,2497
1777324108942,2510
1777324108944,2508
1777324108946,2480
1777324108948,2431
1777324108950,2393
1777324108952,2391
1777324108954,2436
1777324108937,2696
1777324108939,2615
1777324108941,2677
1777324108943,2661
1777324108945,2476
1777324108947,2366
1777324108949,2270
1777324108951,2253
1777324108953,2310
1777324108955,2415
1777324108937,2531
1777324108939,2576
1777324108941,2551
1777324108943,2505
1777324108945,2444
1777324108947,2386
1777324108949,2349
1777324108951,2364
1777324108953,2414
1777324108955,2461
1777324108969,2485
1777324108971,2700
1777324108973,2561
1777324108975,2496
1777324108977,2539
1777324108979,2394
1777324108981,2344
1777324108983,2341
1777324108985,2395
1777324108987,2484
1777324108969,2620
1777324108971,2743
1777324108973,2811
1777324108975,2770
1777324108977,2656
1777324108979,2518
1777324108981,2371
1777324108983,2257
1777324108985,2215
1777324108987,2261
1777324109007,2546
1777324109009,2458
1777324109011,2600
1777324109013,2613
1777324109015,2654
1777324109017,2523
1777324109019,2469
1777324109021,2423
1777324109023,2409
1777324109025,2463
1777324109007,2581
1777324109009,2699
1777324109011,2767
1777324109013,2826
1777324109015,2897
1777324109017,2999
1777324109019,3144
1777324109021,3327
1777324109023,3535
1777324109025,3802
1777324109064,4067
1777324109066,4095
1777324109068,4095
1777324109070,4095
1777324109072,4095
1777324109074,3906
1777324109076,3510
1777324109078,3133
1777324109080,2769
1777324109082,2448
1777324109064,2246
1777324109066,2128
1777324109068,2021
1777324109070,1887
1777324109072,1748
1777324109074,1678
1777324109076,1703
1777324109078,1785
1777324109080,1889
1777324109082,1995
1777324109097,2288
1777324109099,2149
1777324109101,2233
1777324109103,2304
1777324109105,2236
1777324109107,2263
1777324109109,2297
1777324109111,2332
1777324109113,2379
1777324109115,2419
1777324109097,2468
1777324109099,2522
1777324109101,2560
1777324109103,2579
1777324109105,2592
1777324109107,2607
1777324109109,2604
1777324109111,2574
1777324109113,2559
1777324109115,2569
1777324109160,2648
1777324109162,2816
1777324109164,2728
1777324109166,2781
1777324109168,2651
1777324109170,2618
1777324109172,2619
1777324109174,2632
1777324109176,2653
1777324109178,2690
1777324109160,2743
1777324109162,2792
1777324109164,2811
1777324109166,2806
1777324109168,2789
1777324109170,2757
1777324109172,2705
1777324109174,2672
1777324109176,2679
1777324109178,2703
1777324109160,2891
1777324109162,2795
1777324109164,2831
1777324109166,2892
1777324109168,2790
1777324109170,2746
1777324109172,2688
1777324109174,2648
1777324109176,2656
1777324109178,2717
1777324109192,2806
1777324109194,2875
1777324109196,2902
1777324109198,2873
1777324109200,2809
1777324109202,2742
1777324109204,2694
1777324109206,2675
1777324109208,2712
1777324109210,2792
1777324109192,2964
1777324109194,3030
1777324109196,2946
1777324109198,2983
1777324109200,2844
1777324109202,2803
1777324109204,2779
1777324109206,2794
1777324109208,2863
1777324109210,2928
1777324109232,2975
1777324109234,3006
1777324109236,3026
1777324109238,3047
1777324109240,3070
1777324109242,3070
1777324109244,3031
1777324109246,2957
1777324109248,2913
1777324109250,2945
1777324109232,3212
1777324109234,3072
1777324109236,3129
1777324109238,3222
1777324109240,3095
1777324109242,3042
1777324109244,3007
1777324109246,2999
1777324109248,3029
1777324109250,3073
1777324109288,3122
1777324109290,3156
1777324109292,3155
1777324109294,3130
1777324109296,3068
1777324109298,2990
1777324109300,2903
1777324109302,2844
1777324109304,2837
1777324109306,2875
1777324109288,2926
1777324109290,3166
1777324109292,3017
1777324109294,3045
1777324109296,2950
1777324109298,2863
1777324109300,2783
1777324109302,2731
1777324109304,2737
1777324109306,2804
1777324109322,2885
1777324109324,2923
1777324109326,2899
1777324109328,2841
1777324109330,2766
1777324109332,2689
1777324109334,2606
1777324109336,2528
1777324109338,2488
1777324109340,2475
1777324109322,2686
1777324109324,2522
1777324109326,2556
1777324109328,2652
1777324109330,2542
1777324109332,2491
1777324109334,2445
1777324109336,2441
1777324109338,2455
1777324109340,2481
1777324109322,2527
1777324109324,2562
1777324109326,2552
1777324109328,2509
1777324109330,2432
1777324109332,2341
1777324109334,2241
1777324109336,2160
1777324109338,2138
1777324109340,2193
1777324109385,2388
1777324109387,2495
1777324109389,2506
1777324109391,2516
1777324109393,2550
1777324109395,2359
1777324109397,2234
1777324109399,2142
1777324109401,2130
1777324109403,2178
1777324109385,2274
1777324109387,2364
1777324109389,2416
1777324109391,2439
1777324109393,2423
1777324109395,2367
1777324109397,2295
1777324109399,2262
1777324109401,2297
1777324109403,2355
1777324109417,2594
1777324109419,2443
1777324109421,2491
1777324109423,2561
1777324109425,2457
1777324109427,2447
1777324109429,2414
1777324109431,2359
1777324109433,2344
1777324109435,2370
1777324109417,2430
1777324109419,2482
1777324109421,2506
1777324109423,2489
1777324109425,2405
1777324109427,2313
1777324109429,2274
1777324109431,2292
1777324109433,2368
1777324109435,2451
1777324109457,2592
1777324109459,2628
1777324109461,2574
1777324109463,2651
1777324109465,2557
1777324109467,2532
1777324109469,2489
1777324109471,2435
1777324109473,2410
1777324109475,2427
1777324109457,2493
1777324109459,2550
1777324109461,2569
1777324109463,2558
1777324109465,2528
1777324109467,2472
1777324109469,2407
1777324109471,2390
1777324109473,2455
1777324109475,2550
1777324109512,2800
1777324109514,2618
1777324109516,2627
1777324109518,2671
1777324109520,2553
1777324109522,2531
1777324109524,2502
1777324109526,2468
1777324109528,2444
1777324109530,2434
1777324109512,2417
1777324109514,2400
1777324109516,2379
1777324109518,2341
1777324109520,2297
1777324109522,2271
1777324109524,2284
1777324109526,2350
1777324109528,2441
1777324109530,2558
1777324109512,2728
1777324109514,2754
1777324109516,2631
1777324109518,2634
1777324109520,2470
1777324109522,2407
1777324109524,2362
1777324109526,2348
1777324109528,2392
1777324109530,2468
1777324109547,2505
1777324109549,2496
1777324109551,2467
1777324109553,2435
1777324109555,2403
1777324109557,2377
1777324109559,2378
1777324109561,2420
1777324109563,2486
1777324109565,2566
1777324109547,2783
1777324109549,2540
1777324109551,2493
1777324109553,2518
1777324109555,2382
1777324109557,2325
1777324109559,2284
1777324109561,2266
1777324109563,2301
1777324109565,2401
1777324109608,2520
1777324109610,2604
1777324109612,2611
1777324109614,2565
1777324109616,2516
1777324109618,2467
1777324109620,2427
1777324109622,2413
1777324109624,2453
1777324109626,2515
1777324109608,2641
1777324109610,2682
1777324109612,2602
1777324109614,2646
1777324109616,2523
1777324109618,2480
1777324109620,2463
1777324109622,2487
1777324109624,2529
1777324109626,2571
1777324109641,2604
1777324109643,2593
1777324109645,2558
1777324109647,2514
1777324109649,2495
1777324109651,2505
1777324109653,2551
1777324109655,2585
1777324109657,2589
1777324109659,2595
1777324109641,2786
1777324109643,2576
1777324109645,2527
1777324109647,2481
1777324109649,2301
1777324109651,2217
1777324109653,2183
1777324109655,2202
1777324109657,2295
1777324109659,2426
1777324109641,2548
1777324109643,2646
1777324109645,2711
1777324109647,2744
1777324109649,2736
1777324109651,2673
1777324109653,2577
1777324109655,2494
1777324109657,2465
1777324109659,2492
1777324109682,2540
1777324109684,2773
1777324109686,2627
1777324109688,2611
1777324109690,2669
1777324109692,2533
1777324109694,2479
1777324109696,2441
1777324109698,2434
1777324109700,2468
1777324109682,2533
1777324109684,2619
1777324109686,2687
1777324109688,2732
1777324109690,2750
1777324109692,2733
1777324109694,2675
1777324109696,2622
1777324109698,2615
1777324109700,2679
1777324109737,2948
1777324109739,2787
1777324109741,2812
1777324109743,2794
1777324109745,2781
1777324109747,2655
1777324109749,2657
1777324109751,2701
1777324109753,2775
1777324109755,2861
1777324109737,2919
1777324109739,2950
1777324109741,2950
1777324109743,2912
1777324109745,2845
1777324109747,2759
1777324109749,2681
1777324109751,2637
1777324109753,2643
1777324109755,2702
1777324109772,2837
1777324109774,2862
1777324109776,2762
1777324109778,2789
1777324109780,2668
1777324109782,2599
1777324109784,2533
1777324109786,2486
1777324109788,2476
1777324109790,2514
1777324109772,2585
1777324109774,2675
1777324109776,2753
1777324109778,2820
1777324109780,2856
1777324109782,2815
1777324109784,2723
1777324109786,2624
1777324109788,2556
1777324109790,2561
1777324109833,2806
1777324109835,2682
1777324109837,2752
1777324109839,2834
1777324109841,2744
1777324109843,2733
1777324109845,2746
1777324109847,2760
1777324109849,2793
1777324109851,2829
1777324109833,2842
1777324109835,2832
1777324109837,2803
1777324109839,2772
1777324109841,2749
1777324109843,2705
1777324109845,2646
1777324109847,2606
1777324109849,2611
1777324109851,2678
1777324109870,2847
1777324109872,2936
1777324109874,2909
1777324109876,3004
1777324109878,2922
1777324109880,2919
1777324109882,2928
1777324109884,2983
1777324109886,3137
1777324109888,3386
1777324109870,3696
1777324109872,4028
1777324109874,4095
1777324109876,4095
1777324109878,4095
1777324109880,4095
1777324109882,4095
1777324109884,4095
1777324109886,4095
1777324109888,4095
1777324109870,4036
1777324109872,3551
1777324109874,3120
1777324109876,2793
1777324109878,2417
1777324109880,2207
1777324109882,2104
1777324109884,2111
1777324109886,2171
1777324109888,2252
1777324109907,2318
1777324109909,2376
1777324109911,2417
1777324109913,2452
1777324109915,2470
1777324109917,2464
1777324109919,2448
1777324109921,2446
1777324109923,2505
1777324109925,2628
1777324109907,2854
1777324109909,2987
1777324109911,2940
1777324109913,3011
1777324109915,2933
1777324109917,2898
1777324109919,2839
1777324109921,2786
1777324109923,2773
1777324109925,2826
1777324109966,2899
1777324109968,2963
1777324109970,3008
1777324109972,3011
1777324109974,2991
1777324109976,2925
1777324109978,2864
1777324109980,2827
1777324109982,2810
1777324109984,2816
1777324109966,3050
1777324109968,2903
1777324109970,2970
1777324109972,3064
1777324109974,2951
1777324109976,2877
1777324109978,2789
1777324109980,2735
1777324109982,2725
1777324109984,2765
1777324109997,2818
1777324109999,2866
1777324110001,2885
1777324110003,2873
1777324110005,2868
1777324110007,2843
1777324110009,2795
1777324110011,2776
1777324110013,2809
1777324110015,2908
1777324109997,2997
1777324109999,3248
1777324110001,3073
1777324110003,3097
1777324110005,2940
1777324110007,2855
1777324110009,2804
1777324110011,2802
1777324110013,2824
1777324110015,2865
1777324110061,2913
1777324110063,2963
1777324110065,3007
1777324110067,3014
1777324110069,2997
1777324110071,2966
1777324110073,2941
1777324110075,2926
1777324110077,2956
1777324110079,3045
1777324110061,3341
1777324110063,3202
1777324110065,3249
1777324110067,3316
1777324110069,3208
1777324110071,3141
1777324110073,3072
1777324110075,3049
1777324110077,3060
1777324110079,3107
1777324110061,3164
1777324110063,3215
1777324110065,3260
1777324110067,3291
1777324110069,3294
1777324110071,3256
1777324110073,3223
1777324110075,3213
1777324110077,3239
1777324110079,3292
1777324110093,3424
1777324110095,3470
1777324110097,3400
1777324110099,3352
1777324110101,3442
1777324110103,3333
1777324110105,3342
1777324110107,3360
1777324110109,3371
1777324110111,3387
1777324110093,3384
1777324110095,3331
1777324110097,3247
1777324110099,3157
1777324110101,3090
1777324110103,3051
1777324110105,3035
1777324110107,3051
1777324110109,3088
1777324110111,3147
1777324110158,3356
1777324110160,3132
1777324110162,3069
1777324110164,3013
1777324110166,2802
1777324110168,2711
1777324110170,2625
1777324110172,2563
1777324110174,2593
1777324110176,2684
1777324110158,2752
1777324110160,2766
1777324110162,2748
1777324110164,2712
1777324110166,2673
1777324110168,2601
1777324110170,2496
1777324110172,2421
1777324110174,2423
1777324110176,2503
1777324110190,2601
1777324110192,2867
1777324110194,2761
1777324110196,2742
1777324110198,2702
1777324110200,2507
1777324110202,2380
1777324110204,2304
1777324110206,2303
1777324110208,2358
1777324110190,2426
1777324110192,2498
1777324110194,2566
1777324110196,2595
1777324110198,2579
1777324110200,2533
1777324110202,2481
1777324110204,2450
1777324110206,2436
1777324110208,2444
1777324110222,2681
1777324110224,2495
1777324110226,2508
1777324110228,2527
1777324110230,2423
1777324110232,2402
1777324110234,2373
1777324110236,2364
1777324110238,2385
1777324110240,2441
1777324110222,2495
1777324110224,2510
1777324110226,2492
1777324110228,2459
1777324110230,2426
1777324110232,2388
1777324110234,2352
1777324110236,2352
1777324110238,2376
1777324110240,2414
1777324110222,2476
1777324110224,2595
1777324110226,2497
1777324110228,2548
1777324110230,2471
1777324110232,2465
1777324110234,2421
1777324110236,2368
1777324110238,2321
1777324110240,2321
1777324110284,2347
1777324110286,2368
1777324110288,2385
1777324110290,2397
1777324110292,2405
1777324110294,2391
1777324110296,2360
1777324110298,2355
1777324110300,2400
1777324110302,2493
1777324110284,2777
1777324110286,2604
1777324110288,2604
1777324110290,2586
1777324110292,2431
1777324110294,2383
1777324110296,2342
1777324110298,2331
1777324110300,2348
1777324110302,2410
1777324110381,2481
1777324110383,2506
1777324110385,2509
1777324110387,2517
1777324110389,2523
1777324110391,2516
1777324110393,2497
1777324110395,2485
1777324110397,2472
1777324110399,2466
1777324110381,2495
1777324110383,2582
1777324110385,2419
1777324110387,2415
1777324110389,2274
1777324110391,2236
1777324110393,2196
1777324110395,2193
1777324110397,2248
1777324110399,2354
1777324110381,2461
1777324110383,2517
1777324110385,2522
1777324110387,2473
1777324110389,2406
1777324110391,2333
1777324110393,2249
1777324110395,2176
1777324110397,2162
1777324110399,2210
1777324110381,2464
1777324110383,2297
1777324110385,2344
1777324110387,2379
1777324110389,2273
1777324110391,2266
1777324110393,2217
1777324110395,2162
1777324110397,2152
1777324110399,2198
1777324110381,2270
1777324110383,2297
1777324110385,2270
1777324110387,2232
1777324110389,2217
1777324110391,2198
1777324110393,2137
1777324110395,2064
1777324110397,2034
1777324110399,2073
1777324110412,2135
1777324110414,2357
1777324110416,2201
1777324110418,2165
1777324110420,2281
1777324110422,2206
1777324110424,2176
1777324110426,2152
1777324110428,2150
1777324110430,2187
1777324110412,2262
1777324110414,2307
1777324110416,2299
1777324110418,2255
1777324110420,2217
1777324110422,2167
1777324110424,2116
1777324110426,2094
1777324110428,2118
1777324110430,2205
1777324110447,2487
1777324110449,2325
1777324110451,2346
1777324110453,2276
1777324110455,2301
1777324110457,2173
1777324110459,2070
1777324110461,1981
1777324110463,1938
1777324110465,1946
1777324110447,2007
1777324110449,2077
1777324110451,2143
1777324110453,2201
1777324110455,2231
1777324110457,2245
1777324110459,2222
1777324110461,2163
1777324110463,2114
1777324110465,2098
1777324110507,2163
1777324110509,2322
1777324110511,2242
1777324110513,2286
1777324110515,2185
1777324110517,2144
1777324110519,2081
1777324110521,2014
1777324110523,1999
1777324110525,2056
1777324110507,2142
1777324110509,2199
1777324110511,2248
1777324110513,2286
1777324110515,2323
1777324110517,2339
1777324110519,2285
1777324110521,2195
1777324110523,2096
1777324110525,2047
1777324110539,2285
1777324110541,2111
1777324110543,2154
1777324110545,2169
1777324110547,2035
1777324110549,2014
1777324110551,1976
1777324110553,1946
1777324110555,1990
1777324110557,2084
1777324110539,2151
1777324110541,2180
1777324110543,2186
1777324110545,2165
1777324110547,2128
1777324110549,2076
1777324110551,2006
1777324110553,1954
1777324110555,1947
1777324110557,1996
1777324110602,2125
1777324110604,2305
1777324110606,2215
1777324110608,2236
1777324110610,2074
1777324110612,1997
1777324110614,1906
1777324110616,1824
1777324110618,1804
1777324110620,1850
1777324110602,1911
1777324110604,1952
1777324110606,1976
1777324110608,1980
1777324110610,2003
1777324110612,2021
1777324110614,1990
1777324110616,1976
1777324110618,1985
1777324110620,2014
1777324110602,2262
1777324110604,2067
1777324110606,2096
1777324110608,2107
1777324110610,1942
1777324110612,1867
1777324110614,1778
1777324110616,1742
1777324110618,1768
1777324110620,1820
1777324110635,1877
1777324110637,1900
1777324110639,1882
1777324110641,1842
1777324110643,1818
1777324110645,1787
1777324110647,1721
1777324110649,1677
1777324110651,1676
1777324110653,1747
1777324110635,1883
1777324110637,2033
1777324110639,1899
1777324110641,1914
1777324110643,1714
1777324110645,1649
1777324110647,1594
1777324110649,1553
1777324110651,1552
1777324110653,1606
1777324110673,1696
1777324110675,1754
1777324110677,1774
1777324110679,1757
1777324110681,1728
1777324110683,1682
1777324110685,1609
1777324110687,1546
1777324110689,1528
1777324110691,1590
1777324110673,1904
1777324110675,1740
1777324110677,1807
1777324110679,1837
1777324110681,1695
1777324110683,1618
1777324110685,1503
1777324110687,1425
1777324110689,1411
1777324110691,1460
1777324110731,1536
1777324110733,1594
1777324110735,1612
1777324110737,1595
1777324110739,1574
1777324110741,1547
1777324110743,1488
1777324110745,1453
1777324110747,1466
1777324110749,1513
1777324110731,1551
1777324110733,1752
1777324110735,1543
1777324110737,1518
1777324110739,1414
1777324110741,1371
1777324110743,1357
1777324110745,1387
1777324110747,1475
1777324110749,1622
1777324110763,1796
1777324110765,1931
1777324110767,2051
1777324110769,2182
1777324110771,2333
1777324110773,2489
1777324110775,2619
1777324110777,2767
1777324110779,2933
1777324110781,3116
1777324110763,3503
1777324110765,3382
1777324110767,3378
1777324110769,3223
1777324110771,2813
1777324110773,2402
1777324110775,1907
1777324110777,1447
1777324110779,1112
1777324110781,937
1777324110763,894
1777324110765,886
1777324110767,900
1777324110769,908
1777324110771,928
1777324110773,952
1777324110775,955
1777324110777,971
1777324110779,1019
1777324110781,1095
1777324110817,1217
1777324110819,1387
1777324110821,1277
1777324110823,1249
1777324110825,1370
1777324110827,1275
1777324110829,1252
1777324110831,1252
1777324110833,1301
1777324110835,1395
1777324110817,1513
1777324110819,1582
1777324110821,1591
1777324110823,1551
1777324110825,1485
1777324110827,1424
1777324110829,1343
1777324110831,1293
1777324110833,1314
1777324110835,1389
1777324110861,1706
1777324110863,1554
1777324110865,1604
1777324110867,1610
1777324110869,1424
1777324110871,1357
1777324110873,1286
1777324110875,1232
1777324110877,1247
1777324110879,1339
1777324110861,1478
1777324110863,1569
1777324110865,1588
1777324110867,1565
1777324110869,1530
1777324110871,1491
1777324110873,1436
1777324110875,1390
1777324110877,1384
1777324110879,1432
1777324110897,1539
1777324110899,1694
1777324110901,1554
1777324110903,1572
1777324110905,1462
1777324110907,1425
1777324110909,1367
1777324110911,1320
1777324110913,1328
1777324110915,1412
1777324110897,1531
1777324110899,1613
1777324110901,1655
1777324110903,1676
1777324110905,1660
1777324110907,1605
1777324110909,1503
1777324110911,1392
1777324110913,1338
1777324110915,1354
1777324110952,1639
1777324110954,1439
1777324110956,1466
1777324110958,1521
1777324110960,1448
1777324110962,1504
1777324110964,1568
1777324110966,1614
1777324110968,1649
1777324110970,1675
1777324110953,1687
1777324110955,1661
1777324110957,1586
1777324110959,1506
1777324110961,1461
1777324110963,1468
1777324110965,1479
1777324110967,1480
1777324110969,1502
1777324110971,1557
1777324110953,1678
1777324110955,1856
1777324110957,1738
1777324110959,1793
1777324110961,1671
1777324110963,1649
1777324110965,1616
1777324110967,1582
1777324110969,1581
1777324110971,1625
1777324110987,1682
1777324110989,1688
1777324110991,1673
1777324110993,1647
1777324110995,1604
1777324110997,1543
1777324110999,1448
1777324111001,1360
1777324111003,1327
1777324111005,1347
1777324110987,1616
1777324110989,1411
1777324110991,1430
1777324110993,1436
1777324110995,1278
1777324110997,1209
1777324110999,1130
1777324111001,1068
1777324111003,1057
1777324111005,1097
1777324111049,1154
1777324111051,1185
1777324111053,1175
1777324111055,1139
1777324111057,1050
1777324111059,935
1777324111061,824
1777324111063,729
1777324111065,693
1777324111067,725
1777324111049,816
1777324111051,961
1777324111053,817
1777324111055,837
1777324111057,728
1777324111059,720
1777324111061,681
1777324111063,630
1777324111065,613
1777324111067,634
1777324111100,694
1777324111102,738
1777324111104,736
1777324111106,709
1777324111108,684
1777324111110,663
1777324111112,623
1777324111114,564
1777324111116,529
1777324111118,537
1777324111100,736
1777324111102,543
1777324111104,512
1777324111106,501
1777324111108,339
1777324111110,277
1777324111112,223
1777324111114,187
1777324111116,196
1777324111118,274
1777324111100,400
1777324111102,506
1777324111104,538
1777324111106,520
1777324111108,507
1777324111110,476
1777324111112,400
1777324111114,289
1777324111116,186
1777324111118,134
1777324111138,135
1777324111140,178
1777324111142,155
1777324111144,133
1777324111146,82
1777324111148,63
1777324111150,24
1777324111152,15
1777324111154,27
1777324111156,69
1777324111138,123
1777324111140,131
1777324111142,84
1777324111144,22
1777324111146,11
1777324111148,14
1777324111150,14
1777324111152,10
1777324111154,8
1777324111156,9
1777324111176,2
1777324111178,9
1777324111180,9
1777324111182,9
1777324111184,9
1777324111186,14
1777324111188,14
1777324111190,16
1777324111192,11
1777324111194,12
1777324111176,10
1777324111178,15
1777324111180,13
1777324111182,8
1777324111184,13
1777324111186,12
1777324111188,15
1777324111190,12
1777324111192,7
1777324111194,10
1777324111232,9
1777324111234,5
1777324111236,8
1777324111238,5
1777324111240,14
1777324111242,12
1777324111244,17
1777324111246,13
1777324111248,13
1777324111250,12
1777324111232,11
1777324111234,12
1777324111236,11
1777324111238,14
1777324111240,11
1777324111242,12
1777324111244,15
1777324111246,12
1777324111248,8
1777324111250,7
1777324111269,2
1777324111271,11
1777324111273,7
1777324111275,6
1777324111277,13
1777324111279,13
1777324111281,15
1777324111283,11
1777324111285,14
1777324111287,12
1777324111269,11
1777324111271,14
1777324111273,11
1777324111275,10
1777324111277,13
1777324111279,12
1777324111281,15
1777324111283,12
1777324111285,9
1777324111287,9
1777324111302,7
1777324111304,6
1777324111306,8
1777324111308,6
1777324111310,9
1777324111312,13
1777324111314,16
1777324111316,13
1777324111318,13
1777324111320,12
1777324111302,11
1777324111304,12
1777324111306,12
1777324111308,12
1777324111310,12
1777324111312,13
1777324111314,16
1777324111316,13
1777324111318,7
1777324111320,9
1777324111302,2
1777324111304,9
1777324111306,8
1777324111308,4
1777324111310,14
1777324111312,14
1777324111314,15
1777324111316,13
1777324111318,12
1777324111320,13
1777324111347,9
1777324111349,16
1777324111351,11
1777324111353,12
1777324111355,12
1777324111357,13
1777324111359,18
1777324111361,12
1777324111363,14
1777324111365,8
1777324111364,6
1777324111366,4
1777324111368,8
1777324111370,4
1777324111372,12
1777324111374,12
1777324111376,16
1777324111378,11
1777324111380,11
1777324111382,13
1777324111437,11
1777324111439,9
1777324111441,13
1777324111443,9
1777324111445,11
1777324111447,12
1777324111449,16
1777324111451,11
1777324111453,10
1777324111455,6
1777324111437,2
1777324111439,13
1777324111441,8
1777324111443,6
1777324111445,14
1777324111447,14
1777324111449,15
1777324111451,13
1777324111453,14
1777324111455,12
1777324111437,9
1777324111439,16
1777324111441,13
1777324111443,12
1777324111445,12
1777324111447,12
1777324111449,15
1777324111451,13
1777324111453,8
1777324111455,8
1777324111437,5
1777324111439,5
1777324111441,10
1777324111443,4
1777324111445,12
1777324111447,13
1777324111449,16
1777324111451,13
1777324111453,13
1777324111455,11
1777324111492,11
1777324111494,11
1777324111496,13
1777324111498,11
1777324111500,12
1777324111502,13
1777324111504,16
1777324111506,12
1777324111508,9
1777324111510,11
1777324111492,1
1777324111494,13
1777324111496,9
1777324111498,9
1777324111500,7
1777324111502,14
1777324111504,15
1777324111506,13
1777324111508,11
1777324111510,12
1777324111492,9
1777324111494,16
1777324111496,13
1777324111498,10
1777324111500,13
1777324111502,11
1777324111504,13
1777324111506,14
1777324111508,8
1777324111510,9
1777324111542,7
1777324111544,5
1777324111546,6
1777324111548,9
1777324111550,7
1777324111552,13
1777324111554,15
1777324111556,13
1777324111558,12
1777324111560,12
1777324111542,11
1777324111544,12
1777324111546,13
1777324111548,11
1777324111550,13
1777324111552,14
1777324111554,15
1777324111556,12
1777324111558,6
1777324111560,9
1777324111588,12
1777324111590,12
1777324111592,7
1777324111594,5
1777324111596,13
1777324111598,9
1777324111600,17
1777324111602,14
1777324111604,12
1777324111606,11
1777324111588,9
1777324111590,15
1777324111592,14
1777324111594,9
1777324111596,12
1777324111598,12
1777324111600,16
1777324111602,14
1777324111604,8
1777324111606,9
1777324111620,6
1777324111622,4
1777324111624,8
1777324111626,5
1777324111628,15
1777324111630,12
1777324111632,15
1777324111634,12
1777324111636,13
1777324111638,13
1777324111620,12
1777324111622,12
1777324111624,16
1777324111626,11
1777324111628,12
1777324111630,10
1777324111632,13
1777324111634,15
1777324111636,6
1777324111638,10
1777324111662,2
1777324111664,13
1777324111666,8
1777324111668,4
1777324111670,13
1777324111672,13
1777324111674,13
1777324111676,12
1777324111678,12
1777324111680,13
1777324111662,8
1777324111664,16
1777324111666,14
1777324111668,11
1777324111670,13
1777324111672,13
1777324111674,14
1777324111676,14
1777324111678,9
1777324111680,8
1777324111662,6
1777324111664,4
1777324111666,8
1777324111668,6
1777324111670,11
1777324111672,11
1777324111674,14
1777324111676,14
1777324111678,11
1777324111680,12
1777324111715,12
1777324111717,13
1777324111719,11
1777324111721,13
1777324111723,13
1777324111725,12
1777324111727,13
1777324111729,14
1777324111731,9
1777324111733,7
1777324111715,2
1777324111717,9
1777324111719,10
1777324111721,7
1777324111723,13
1777324111725,12
1777324111727,12
1777324111729,14
1777324111731,10
1777324111733,13
1777324111752,8
1777324111754,14
1777324111756,15
1777324111758,10
1777324111760,12
1777324111762,10
1777324111764,16
1777324111766,15
1777324111768,9
1777324111770,10
1777324111752,8
1777324111754,5
1777324111756,8
1777324111758,5
1777324111760,13
1777324111762,12
1777324111764,12
1777324111766,14
1777324111768,12
1777324111770,12
1777324111812,12
1777324111814,10
1777324111816,14
1777324111818,9
1777324111820,13
1777324111822,12
1777324111824,13
1777324111826,13
1777324111828,9
1777324111830,11
1777324111812,2
1777324111814,10
1777324111816,8
1777324111818,4
1777324111820,12
1777324111822,13
1777324111824,12
1777324111826,14
1777324111828,11
1777324111830,12
1777324111812,8
1777324111814,14
1777324111816,16
1777324111818,12
1777324111820,11
1777324111822,10
1777324111824,14
1777324111826,16
1777324111828,6
1777324111830,10
1777324111843,7
1777324111845,3
1777324111847,10
1777324111849,18
1777324111851,8
1777324111853,12
1777324111855,14
1777324111857,13
1777324111859,14
1777324111861,13
1777324111843,11
1777324111845,12
1777324111847,14
1777324111849,13
1777324111851,13
1777324111853,13
1777324111855,13
1777324111857,15
1777324111859,9
1777324111861,10
1777324111887,1
1777324111889,10
1777324111891,8
1777324111893,7
1777324111895,7
1777324111897,11
1777324111899,14
1777324111901,15
1777324111903,12
1777324111905,12
1777324111887,10
1777324111889,15
1777324111891,14
1777324111893,10
1777324111895,13
1777324111897,13
1777324111899,14
1777324111901,14
1777324111903,8
1777324111905,9
1777324111940,6
1777324111942,4
1777324111944,11
1777324111946,6
1777324111948,13
1777324111950,9
1777324111952,13
1777324111954,16
1777324111956,11
1777324111958,10
1777324111940,15
1777324111942,11
1777324111944,15
1777324111946,12
1777324111948,11
1777324111950,10
1777324111952,14
1777324111954,15
1777324111956,8
1777324111958,7
1777324111977,1
1777324111979,10
1777324111981,11
1777324111983,4
1777324111985,13
1777324111987,13
1777324111989,12
1777324111991,13
1777324111993,11
1777324111995,13
1777324111977,7
1777324111979,12
1777324111981,17
1777324111983,9
1777324111985,11
1777324111987,13
1777324111989,11
1777324111991,15
1777324111993,5
1777324111995,7
1777324112036,5
1777324112038,5
1777324112040,8
1777324112042,7
1777324112044,13
1777324112046,12
1777324112048,13
1777324112050,14
1777324112052,12
1777324112054,11
1777324112036,10
1777324112038,12
1777324112040,17
1777324112042,13
1777324112044,12
1777324112046,13
1777324112048,12
1777324112050,16
1777324112052,8
1777324112054,9
1777324112036,3
1777324112038,11
1777324112040,7
1777324112042,6
1777324112044,13
1777324112046,13
1777324112048,12
1777324112050,16
1777324112052,12
1777324112054,12
1777324112067,10
1777324112069,13
1777324112071,14
1777324112073,12
1777324112075,14
1777324112077,12
1777324112079,13
1777324112081,15
1777324112083,9
1777324112085,10
1777324112067,7
1777324112069,5
1777324112071,13
1777324112073,9
1777324112075,9
1777324112077,14
1777324112079,13
1777324112081,17
1777324112083,15
1777324112085,93
1777324112112,267
1777324112114,405
1777324112116,455
1777324112118,436
1777324112120,381
1777324112122,333
1777324112124,312
1777324112126,319
1777324112128,349
1777324112130,408
1777324112112,690
1777324112114,531
1777324112116,609
1777324112118,632
1777324112120,510
1777324112122,463
1777324112124,420
1777324112126,424
1777324112128,480
1777324112130,604
1777324112167,750
1777324112169,845
1777324112171,876
1777324112173,885
1777324112175,882
1777324112177,880
1777324112179,861
1777324112181,852
1777324112183,863
1777324112185,875
1777324112167,873
1777324112169,999
1777324112171,926
1777324112173,757
1777324112175,806
1777324112177,699
1777324112179,759
1777324112181,870
1777324112183,996
1777324112185,1124
1777324112202,1239
1777324112204,1302
1777324112206,1313
1777324112208,1274
1777324112210,1220
1777324112212,1186
1777324112214,1167
1777324112216,1183
1777324112218,1210
1777324112220,1258
1777324112202,1577
1777324112204,1410
1777324112206,1455
1777324112208,1433
1777324112210,1266
1777324112212,1190
1777324112214,1146
1777324112216,1116
1777324112218,1098
1777324112220,1130
1777324112202,1216
1777324112204,1347
1777324112206,1479
1777324112208,1563
1777324112210,1581
1777324112212,1554
1777324112214,1489
1777324112216,1412
1777324112218,1344
1777324112220,1357
1777324112263,1496
1777324112265,1747
1777324112267,1727
1777324112269,1685
1777324112271,1747
1777324112273,1608
1777324112275,1547
1777324112277,1492
1777324112279,1507
1777324112281,1601
1777324112264,1711
1777324112266,1770
1777324112268,1770
1777324112270,1712
1777324112272,1647
1777324112274,1592
1777324112276,1528
1777324112278,1498
1777324112280,1515
1777324112282,1604
1777324112296,1967
1777324112298,1851
1777324112300,1950
1777324112302,1983
1777324112304,1869
1777324112306,1841
1777324112308,1816
1777324112310,1792
1777324112312,1788
1777324112314,1844
1777324112296,1958
1777324112298,2036
1777324112300,2062
1777324112302,2072
1777324112304,2078
1777324112306,2100
1777324112308,2108
1777324112310,2096
1777324112312,2074
1777324112314,2096
1777324112338,2205
1777324112340,2386
1777324112342,2287
1777324112344,2288
1777324112346,2119
1777324112348,2047
1777324112350,2012
1777324112352,2045
1777324112354,2124
1777324112356,2224
1777324112338,2302
1777324112340,2338
1777324112342,2340
1777324112344,2306
1777324112346,2265
1777324112348,2233
1777324112350,2201
1777324112352,2201
1777324112354,2240
1777324112356,2290
1777324112392,2552
1777324112394,2395
1777324112396,2466
1777324112398,2500
1777324112400,2390
1777324112402,2366
1777324112404,2369
1777324112406,2388
1777324112408,2410
1777324112410,2460
1777324112392,2551
1777324112394,2642
1777324112396,2679
1777324112398,2649
1777324112400,2561
1777324112402,2459
1777324112404,2395
1777324112406,2383
1777324112408,2433
1777324112410,2550
1777324112392,2774
1777324112394,3059
1777324112396,3026
1777324112398,3080
1777324112400,2935
1777324112402,2851
1777324112404,2765
1777324112406,2708
1777324112408,2708
1777324112410,2769
1777324112427,2883
1777324112429,2974
1777324112431,3030
1777324112433,3038
1777324112435,3004
1777324112437,2952
1777324112439,2871
1777324112441,2823
1777324112443,2825
1777324112445,2872
1777324112427,3160
1777324112429,3012
1777324112431,3032
1777324112433,3006
1777324112435,2858
1777324112437,2841
1777324112439,2840
1777324112441,2858
1777324112443,2918
1777324112445,2992
1777324112488,3094
1777324112490,3193
1777324112492,3246
1777324112494,3226
1777324112496,3176
1777324112498,3161
1777324112500,3129
1777324112502,3044
1777324112504,2972
1777324112506,2973
1777324112488,3077
1777324112490,3281
1777324112492,3259
1777324112494,3329
1777324112496,3274
1777324112498,3227
1777324112500,3193
1777324112502,3152
1777324112504,3124
1777324112506,3169
1777324112519,3310
1777324112521,3435
1777324112523,3517
1777324112525,3539
1777324112527,3529
1777324112529,3506
1777324112531,3449
1777324112533,3389
1777324112535,3371
1777324112537,3427
1777324112519,3759
1777324112521,3735
1777324112523,3827
1777324112525,3863
1777324112527,3678
1777324112529,3604
1777324112531,3536
1777324112533,3504
1777324112535,3533
1777324112537,3649
1777324112519,3874
1777324112521,4074
1777324112523,4095
1777324112525,4095
1777324112527,4095
1777324112529,4095
1777324112531,4095
1777324112533,4095
1777324112535,4095
1777324112537,4095
1777324112562,4095
1777324112564,4095
1777324112566,4095
1777324112568,4095
1777324112570,4095
1777324112572,4095
1777324112574,4095
1777324112576,4095
1777324112578,4095
1777324112580,4095
1777324112562,4095
1777324112564,4095
1777324112566,4094
1777324112568,3863
1777324112570,3569
1777324112572,3456
1777324112574,3413
1777324112576,3423
1777324112578,3483
1777324112580,3594
1777324112615,3972
1777324112617,3910
1777324112619,4069
1777324112621,4095
1777324112623,4095
1777324112625,4095
1777324112627,4095
1777324112629,4095
1777324112631,4095
1777324112633,4095
1777324112615,4095
1777324112617,4095
1777324112619,4095
1777324112621,4095
1777324112623,4095
1777324112625,4095
1777324112627,4095
1777324112629,4095
1777324112631,4095
1777324112633,4095
1777324112652,4095
1777324112654,4095
1777324112656,4095
1777324112658,4095
1777324112660,4095
1777324112662,4095
1777324112664,4095
1777324112666,4095
1777324112668,4095
1777324112670,4095
1777324112710,4095
1777324112712,4095
1777324112714,4095
1777324112716,4095
1777324112718,4095
1777324112720,4095
1777324112722,4095
1777324112724,4095
1777324112726,4095
1777324112728,4095
1777324112710,4095
1777324112712,4095
1777324112714,4095
1777324112716,4095
1777324112718,4095
1777324112720,4095
1777324112722,4095
1777324112724,4095
1777324112726,4095
1777324112728,4095
1777324112710,4095
1777324112712,4095
1777324112714,4095
1777324112716,4095
1777324112718,4095
1777324112720,4095
1777324112722,4095
1777324112724,4095
1777324112726,4095
1777324112728,4095
1777324112743,4095
1777324112745,4095
1777324112747,4095
1777324112749,4095
1777324112751,4095
1777324112753,4095
1777324112755,4095
1777324112757,4095
1777324112759,4095
1777324112761,4095
1777324112743,4095
1777324112745,4095
1777324112747,4095
1777324112749,4095
1777324112751,4095
1777324112753,4095
1777324112755,4095
1777324112757,4095
1777324112759,4095
1777324112761,4095
1777324112743,4095
1777324112745,4095
1777324112747,4095
1777324112749,4095
1777324112751,4095
1777324112753,4095
1777324112755,4095
1777324112757,4095
1777324112759,4095
1777324112761,4095
1777324112787,4095
1777324112789,4095
1777324112791,4095
1777324112793,4095
1777324112795,4095
1777324112797,4095
1777324112799,4095
1777324112801,4095
1777324112803,4095
1777324112805,4095
1777324112787,4095
1777324112789,4095
1777324112791,4095
1777324112793,4095
1777324112795,4095
1777324112797,4095
1777324112799,4095
1777324112801,4095
1777324112803,4095
1777324112805,4095
1777324112837,4095
1777324112839,4095
1777324112841,4095
1777324112843,4095
1777324112845,4095
1777324112847,4095
1777324112849,4095
1777324112851,4095
1777324112853,4095
1777324112855,4095
1777324112837,4095
1777324112839,4095
1777324112841,4095
1777324112843,4095
1777324112845,4095
1777324112847,4095
1777324112849,4095
1777324112851,4095
1777324112853,4095
1777324112855,4095
1777324112877,4095
1777324112879,4095
1777324112881,4095
1777324112883,4095
1777324112885,4095
1777324112887,4095
1777324112889,4095
1777324112891,4095
1777324112893,4095
1777324112895,4095
1777324112877,4095
1777324112879,4095
1777324112881,4095
1777324112883,4095
1777324112885,4095
1777324112887,4095
1777324112889,4095
1777324112891,4095
1777324112893,4095
1777324112895,4095
1777324112933,4095
1777324112935,4095
1777324112937,4095
1777324112939,4095
1777324112941,4095
1777324112943,4095
1777324112945,4095
1777324112947,4095
1777324112949,4095
1777324112951,4095
1777324112933,4095
1777324112935,4095
1777324112937,4095
1777324112939,4095
1777324112941,4095
1777324112943,4095
1777324112945,4095
1777324112947,4095
1777324112949,4095
1777324112951,4095
1777324112933,4095
1777324112935,4095
1777324112937,4095
1777324112939,4095
1777324112941,4095
1777324112943,4095
1777324112945,4095
1777324112947,4095
1777324112949,4095
1777324112951,4095
1777324112967,4095
1777324112969,4095
1777324112971,4095
1777324112973,4095
1777324112975,4095
1777324112977,4095
1777324112979,4095
1777324112981,4095
1777324112983,4095
1777324112985,4095
1777324112967,4095
1777324112969,4095
1777324112971,4095
1777324112973,4095
1777324112975,4095
1777324112977,4095
1777324112979,4095
1777324112981,4095
1777324112983,4095
1777324112985,4095
1777324113028,4095
1777324113030,4095
1777324113032,4095
1777324113034,4095
1777324113036,4095
1777324113038,4095
1777324113040,4095
1777324113042,4095
1777324113044,4095
1777324113046,4095
1777324113028,4095
1777324113030,4095
1777324113032,4095
1777324113034,4095
1777324113036,4095
1777324113038,4095
1777324113040,4095
1777324113042,4095
1777324113044,4095
1777324113046,4095
1777324113060,4095
1777324113062,4095
1777324113064,4095
1777324113066,4095
1777324113068,4095
1777324113070,4095
1777324113072,4095
1777324113074,4095
1777324113076,4095
1777324113078,4095
1777324113060,4095
1777324113062,4095
1777324113064,4095
1777324113066,4095
1777324113068,4095
1777324113070,4095
1777324113072,4095
1777324113074,4095
1777324113076,4095
1777324113078,4095
1777324113102,4095
1777324113104,4095
1777324113106,4095
1777324113108,4095
1777324113110,4095
1777324113112,4095
1777324113114,4095
1777324113116,4095
1777324113118,4095
1777324113120,4095
1777324113102,4095
1777324113104,4095
1777324113106,4095
1777324113108,4095
1777324113110,4095
1777324113112,4095
1777324113114,4095
1777324113116,4095
1777324113118,4095
1777324113120,4095
1777324113102,4095
1777324113104,4095
1777324113106,4095
1777324113108,4095
1777324113110,4095
1777324113112,4095
1777324113114,4095
1777324113116,4095
1777324113118,4095
1777324113120,4095
1777324113156,4095
1777324113158,4095
1777324113160,4095
1777324113162,4095
1777324113164,4095
1777324113166,4095
1777324113168,4095
1777324113170,4095
1777324113172,4095
1777324113174,4095
1777324113156,4095
1777324113158,4095
1777324113160,4095
1777324113162,4095
1777324113164,4095
1777324113166,4095
1777324113168,4095
1777324113170,4095
1777324113172,4095
1777324113174,4095
1777324113192,4095
1777324113194,4095
1777324113196,4095
1777324113198,4095
1777324113200,4095
1777324113202,4095
1777324113204,4095
1777324113206,4095
1777324113208,4095
1777324113210,4095
1777324113192,4095
1777324113194,4095
1777324113196,4095
1777324113198,4095
1777324113200,4095
1777324113202,4095
1777324113204,4095
1777324113206,4095
1777324113208,4095
1777324113210,4095
1777324113250,4095
1777324113252,4095
1777324113254,4095
1777324113256,4095
1777324113258,4095
1777324113260,4095
1777324113262,4095
1777324113264,4095
1777324113266,4095
1777324113268,4095
1777324113250,4095
1777324113252,4095
1777324113254,4095
1777324113256,4095
1777324113258,4095
1777324113260,4095
1777324113262,4095
1777324113264,4095
1777324113266,4095
1777324113268,4095
1777324113250,4095
1777324113252,4095
1777324113254,4095
1777324113256,4095
1777324113258,4095
1777324113260,4095
1777324113262,4095
1777324113264,4095
1777324113266,4095
1777324113268,4095
1777324113282,4095
1777324113284,4095
1777324113286,4095
1777324113288,4095
1777324113290,4095
1777324113292,4095
1777324113294,4095
1777324113296,4095
1777324113298,4095
1777324113300,4095
1777324113282,4095
1777324113284,4095
1777324113286,4095
1777324113288,4095
1777324113290,4095
1777324113292,4095
1777324113294,4095
1777324113296,4095
1777324113298,4095
1777324113300,4095
1777324113327,4095
1777324113329,4095
1777324113331,4095
1777324113333,4095
1777324113335,4095
1777324113337,4095
1777324113339,4095
1777324113341,4095
1777324113343,4095
1777324113345,4095
1777324113327,4095
1777324113329,4095
1777324113331,4095
1777324113333,4095
1777324113335,4095
1777324113337,4095
1777324113339,4095
1777324113341,4095
1777324113343,4095
1777324113345,4095
1777324113377,4095
1777324113379,4095
1777324113381,4095
1777324113383,4095
1777324113385,4095
1777324113387,4095
1777324113389,4095
1777324113391,4095
1777324113393,4095
1777324113395,4095
1777324113377,4095
1777324113379,4095
1777324113381,4095
1777324113383,4095
1777324113385,4095
1777324113387,4095
1777324113389,4095
1777324113391,4095
1777324113393,4095
1777324113395,4095
1777324113417,4095
1777324113419,4095
1777324113421,4095
1777324113423,4095
1777324113425,4095
1777324113427,4095
1777324113429,4095
1777324113431,4095
1777324113433,4095
1777324113435,4095
1777324113417,4095
1777324113419,4095
1777324113421,4095
1777324113423,4095
1777324113425,4095
1777324113427,4095
1777324113429,4095
1777324113431,4095
1777324113433,4095
1777324113435,4095
1777324113474,4095
1777324113476,4095
1777324113478,4095
1777324113480,4095
1777324113482,4095
1777324113484,4095
1777324113486,4095
1777324113488,4095
1777324113490,4095
1777324113492,4095
1777324113474,4095
1777324113476,4095
1777324113478,4095
1777324113480,4095
1777324113482,4095
1777324113484,4095
1777324113486,4091
1777324113488,4039
1777324113490,4045
1777324113492,4094
1777324113474,4095
1777324113476,4095
1777324113478,4095
1777324113480,4095
1777324113482,4095
1777324113484,4095
1777324113486,4095
1777324113488,4095
1777324113490,4095
1777324113492,4095
1777324113507,4095
1777324113509,4095
1777324113511,4095
1777324113513,4095
1777324113515,4095
1777324113517,4095
1777324113519,4095
1777324113521,4095
1777324113523,4095
1777324113525,4095
1777324113507,4095
1777324113509,4095
1777324113511,4095
1777324113513,4088
1777324113515,3733
1777324113517,3385
1777324113519,3085
1777324113521,2876
1777324113523,2826
1777324113525,2956
1777324113552,3201
1777324113554,3455
1777324113556,3656
1777324113558,3757
1777324113560,3763
1777324113562,3704
1777324113564,3605
1777324113566,3491
1777324113568,3412
1777324113570,3404
1777324113552,3678
1777324113554,3560
1777324113556,3682
