timestamp_ms,ecg_raw
1777572499764,1304
1777572499766,1303
1777572499768,1297
1777572499770,1289
1777572499772,1274
1777572499774,1265
1777572499776,1259
1777572499778,1261
1777572499780,1261
1777572499782,1264
1777572499764,1272
1777572499766,1272
1777572499768,1267
1777572499770,1241
1777572499772,1255
1777572499774,1244
1777572499776,1245
1777572499778,1248
1777572499780,1251
1777572499782,1252
1777572499764,1249
1777572499766,1245
1777572499768,1252
1777572499770,1252
1777572499772,1244
1777572499774,1242
1777572499776,1239
1777572499778,1241
1777572499780,1244
1777572499782,1248
1777572499813,1255
1777572499815,1257
1777572499817,1249
1777572499819,1241
1777572499821,1219
1777572499823,1205
1777572499825,1192
1777572499827,1226
1777572499829,1237
1777572499831,1239
1777572499813,1233
1777572499815,1229
1777572499817,1228
1777572499819,1223
1777572499821,1214
1777572499823,1211
1777572499825,1206
1777572499827,1203
1777572499829,1201
1777572499831,1202
1777572499847,1203
1777572499849,1208
1777572499851,1212
1777572499853,1212
1777572499855,1214
1777572499857,1203
1777572499859,1186
1777572499861,1185
1777572499863,1176
1777572499865,1212
1777572499847,1224
1777572499849,1227
1777572499851,1227
1777572499853,1219
1777572499855,1208
1777572499857,1199
1777572499859,1187
1777572499861,1187
1777572499863,1191
1777572499865,1200
1777572499897,1205
1777572499899,1207
1777572499901,1205
1777572499903,1203
1777572499905,1197
1777572499907,1194
1777572499909,1194
1777572499911,1196
1777572499913,1194
1777572499915,1191
1777572499897,1185
1777572499899,1187
1777572499901,1211
1777572499903,1211
1777572499905,1206
1777572499907,1197
1777572499909,1195
1777572499911,1194
1777572499913,1196
1777572499915,1205
1777572499934,1214
1777572499936,1218
1777572499938,1222
1777572499940,1220
1777572499942,1212
1777572499944,1212
1777572499946,1211
1777572499948,1209
1777572499950,1208
1777572499952,1203
1777572499934,1206
1777572499936,1201
1777572499938,1199
1777572499940,1182
1777572499942,1206
1777572499944,1209
1777572499946,1200
1777572499948,1195
1777572499950,1195
1777572499952,1195
1777572499934,1200
1777572499936,1197
1777572499938,1205
1777572499940,1210
1777572499942,1210
1777572499944,1210
1777572499946,1209
1777572499948,1209
1777572499950,1211
1777572499952,1213
1777572499986,1215
1777572499988,1220
1777572499990,1226
1777572499992,1227
1777572499994,1216
1777572499996,1205
1777572499998,1188
1777572500000,1215
1777572500002,1220
1777572500004,1226
1777572499986,1224
1777572499988,1229
1777572499990,1227
1777572499992,1226
1777572499994,1220
1777572499996,1215
1777572499998,1210
1777572500000,1210
1777572500002,1209
1777572500004,1210
1777572500020,1209
1777572500022,1213
1777572500024,1217
1777572500026,1215
1777572500028,1215
1777572500030,1216
1777572500032,1209
1777572500034,1211
1777572500036,1199
1777572500038,1240
1777572500020,1245
1777572500022,1250
1777572500024,1255
1777572500026,1258
1777572500028,1258
1777572500030,1261
1777572500032,1273
1777572500034,1289
1777572500036,1294
1777572500038,1298
1777572500066,1303
1777572500068,1310
1777572500070,1315
1777572500072,1324
1777572500074,1321
1777572500076,1315
1777572500078,1304
1777572500080,1294
1777572500082,1294
1777572500084,1292
1777572500066,1288
1777572500068,1287
1777572500070,1317
1777572500072,1324
1777572500074,1325
1777572500076,1317
1777572500078,1310
1777572500080,1305
1777572500082,1305
1777572500084,1305
1777572500113,1305
1777572500115,1295
1777572500117,1299
1777572500119,1295
1777572500121,1289
1777572500123,1280
1777572500125,1275
1777572500127,1276
1777572500129,1283
1777572500131,1286
1777572500113,1285
1777572500115,1281
1777572500117,1288
1777572500119,1269
1777572500121,1290
1777572500123,1288
1777572500125,1274
1777572500127,1267
1777572500129,1265
1777572500131,1268
1777572500113,1268
1777572500115,1274
1777572500117,1275
1777572500119,1276
1777572500121,1277
1777572500123,1279
1777572500125,1275
1777572500127,1273
1777572500129,1273
1777572500131,1272
1777572500156,1272
1777572500158,1273
1777572500160,1277
1777572500162,1283
1777572500164,1288
1777572500166,1296
1777572500168,1293
1777572500170,1332
1777572500172,1332
1777572500174,1323
1777572500156,1318
1777572500158,1317
1777572500160,1322
1777572500162,1323
1777572500164,1318
1777572500166,1309
1777572500168,1295
1777572500170,1294
1777572500172,1300
1777572500174,1314
1777572500209,1333
1777572500211,1353
1777572500213,1372
1777572500215,1401
1777572500217,1427
1777572500219,1456
1777572500221,1481
1777572500223,1530
1777572500225,1588
1777572500227,1720
1777572500209,1823
1777572500211,1919
1777572500213,2008
1777572500215,2088
1777572500217,2141
1777572500219,2160
1777572500221,2154
1777572500223,2131
1777572500225,2100
1777572500227,2058
1777572500246,1995
1777572500248,1915
1777572500250,1831
1777572500252,1751
1777572500254,1670
1777572500256,1590
1777572500258,1508
1777572500260,1437
1777572500262,1385
1777572500264,1343
1777572500246,1319
1777572500248,1315
1777572500250,1348
1777572500252,1359
1777572500254,1354
1777572500256,1355
1777572500258,1354
1777572500260,1365
1777572500262,1382
1777572500264,1399
1777572500290,1413
1777572500292,1422
1777572500294,1436
1777572500296,1443
1777572500298,1447
1777572500300,1453
1777572500302,1453
1777572500304,1450
1777572500306,1449
1777572500308,1456
1777572500290,1470
1777572500292,1475
1777572500294,1488
1777572500296,1485
1777572500298,1531
1777572500300,1545
1777572500302,1555
1777572500304,1556
1777572500306,1548
1777572500308,1537
1777572500290,1526
1777572500292,1528
1777572500294,1528
1777572500296,1531
1777572500298,1537
1777572500300,1536
1777572500302,1530
1777572500304,1520
1777572500306,1515
1777572500308,1522
1777572500339,1535
1777572500341,1549
1777572500343,1561
1777572500345,1569
1777572500347,1576
1777572500349,1572
1777572500351,1559
1777572500353,1604
1777572500355,1622
1777572500357,1627
1777572500339,1630
1777572500341,1634
1777572500343,1639
1777572500345,1642
1777572500347,1643
1777572500349,1643
1777572500351,1639
1777572500353,1649
1777572500355,1665
1777572500357,1678
1777572500380,1691
1777572500382,1704
1777572500384,1713
1777572500386,1733
1777572500388,1739
1777572500390,1743
1777572500392,1732
1777572500394,1725
1777572500396,1713
1777572500398,1776
1777572500380,1804
1777572500382,1825
1777572500384,1840
1777572500386,1852
1777572500388,1854
1777572500390,1848
1777572500392,1847
1777572500394,1849
1777572500396,1859
1777572500398,1871
1777572500434,1884
1777572500436,1892
1777572500438,1911
1777572500440,1925
1777572500442,1936
1777572500444,1946
1777572500446,1955
1777572500448,1962
1777572500450,1971
1777572500452,1977
1777572500434,1991
1777572500436,2010
1777572500438,2042
1777572500440,2047
1777572500442,2036
1777572500444,2029
1777572500446,2024
1777572500448,2020
1777572500450,2018
1777572500452,2008
1777572500434,2003
1777572500436,2007
1777572500438,2009
1777572500440,2009
1777572500442,1997
1777572500444,1980
1777572500446,1963
1777572500448,1952
1777572500450,1944
1777572500452,1932
1777572500470,1920
1777572500472,1892
1777572500474,1875
1777572500476,1834
1777572500478,1843
1777572500480,1833
1777572500482,1809
1777572500484,1788
1777572500486,1765
1777572500488,1746
1777572500470,1730
1777572500472,1714
1777572500474,1698
1777572500476,1681
1777572500478,1656
1777572500480,1637
1777572500482,1615
1777572500484,1609
1777572500486,1606
1777572500488,1608
1777572500562,1612
1777572500564,1616
1777572500566,1611
1777572500568,1607
1777572500570,1601
1777572500572,1596
1777572500574,1590
1777572500576,1618
1777572500578,1622
1777572500580,1628
1777572500562,1636
1777572500564,1646
1777572500566,1661
1777572500568,1673
1777572500570,1674
1777572500572,1669
1777572500574,1661
1777572500576,1649
1777572500578,1645
1777572500580,1647
1777572500562,1653
1777572500564,1650
1777572500566,1650
1777572500568,1663
1777572500570,1673
1777572500572,1677
1777572500574,1673
1777572500576,1669
1777572500578,1677
1777572500580,1695
1777572500562,1707
1777572500564,1722
1777572500566,1736
1777572500568,1749
1777572500570,1743
1777572500572,1753
1777572500574,1753
1777572500576,1751
1777572500578,1753
1777572500580,1758
1777572500606,1767
1777572500608,1773
1777572500610,1786
1777572500612,1799
1777572500614,1804
1777572500616,1810
1777572500618,1803
1777572500620,1800
1777572500622,1804
1777572500624,1810
1777572500606,1813
1777572500608,1787
1777572500610,1833
1777572500612,1830
1777572500614,1816
1777572500616,1808
1777572500618,1802
1777572500620,1801
1777572500622,1799
1777572500624,1801
1777572500606,1798
1777572500608,1807
1777572500610,1811
1777572500612,1818
1777572500614,1823
1777572500616,1824
1777572500618,1823
1777572500620,1819
1777572500622,1820
1777572500624,1821
1777572500657,1828
1777572500659,1828
1777572500661,1833
1777572500663,1822
1777572500665,1853
1777572500667,1870
1777572500669,1867
1777572500671,1863
1777572500673,1860
1777572500675,1860
1777572500657,1867
1777572500659,1871
1777572500661,1879
1777572500663,1889
1777572500665,1890
1777572500667,1881
1777572500669,1869
1777572500671,1871
1777572500673,1881
1777572500675,1887
1777572500740,1894
1777572500742,1896
1777572500744,1885
1777572500746,1883
1777572500748,1881
1777572500750,1879
1777572500752,1883
1777572500754,1916
1777572500756,1925
1777572500758,1929
1777572500740,1935
1777572500742,1942
1777572500744,1947
1777572500746,1946
1777572500748,1941
1777572500750,1941
1777572500752,1945
1777572500754,1947
1777572500756,1951
1777572500758,1958
1777572500740,1960
1777572500742,1961
1777572500744,1975
1777572500746,1980
1777572500748,1986
1777572500750,1987
1777572500752,1979
1777572500754,1975
1777572500756,1982
1777572500758,1999
1777572500753,2012
1777572500755,2022
1777572500757,2031
1777572500759,2044
1777572500761,2050
1777572500763,2048
1777572500765,2036
1777572500767,2027
1777572500769,2031
1777572500771,2037
1777572500785,2035
1777572500787,2041
1777572500789,2042
1777572500791,2045
1777572500793,2046
1777572500795,2047
1777572500797,2043
1777572500799,2037
1777572500801,2035
1777572500803,2025
1777572500785,2017
1777572500787,1995
1777572500789,2048
1777572500791,2053
1777572500793,2057
1777572500795,2046
1777572500797,2028
1777572500799,2023
1777572500801,2023
1777572500803,2027
1777572500785,2028
1777572500787,2023
1777572500789,2015
1777572500791,2012
1777572500793,2016
1777572500795,2022
1777572500797,2017
1777572500799,2015
1777572500801,2010
1777572500803,2010
1777572500831,2011
1777572500833,2016
1777572500835,2024
1777572500837,2018
1777572500839,2042
1777572500841,2057
1777572500843,2057
1777572500845,2054
1777572500847,2047
1777572500849,2042
1777572500831,2046
1777572500833,2055
1777572500835,2063
1777572500837,2071
1777572500839,2077
1777572500841,2071
1777572500843,2070
1777572500845,2061
1777572500847,2057
1777572500849,2059
1777572500881,2068
1777572500883,2073
1777572500885,2080
1777572500887,2097
1777572500889,2106
1777572500891,2109
1777572500893,2103
1777572500895,2117
1777572500897,2117
1777572500899,2122
1777572500881,2128
1777572500883,2135
1777572500885,2139
1777572500887,2142
1777572500889,2136
1777572500891,2136
1777572500893,2128
1777572500895,2124
1777572500897,2128
1777572500899,2138
1777572500920,2145
1777572500922,2154
1777572500924,2165
1777572500926,2169
1777572500928,2165
1777572500930,2162
1777572500932,2154
1777572500934,2155
1777572500936,2146
1777572500938,2181
1777572500920,2185
1777572500922,2183
1777572500924,2174
1777572500926,2168
1777572500928,2165
1777572500930,2167
1777572500932,2157
1777572500934,2153
1777572500936,2156
1777572500938,2167
1777572500965,2177
1777572500967,2193
1777572500969,2198
1777572500971,2207
1777572500973,2212
1777572500975,2215
1777572500977,2210
1777572500979,2202
1777572500981,2200
1777572500983,2188
1777572500966,2186
1777572500968,2187
1777572500970,2214
1777572500972,2220
1777572500974,2230
1777572500976,2236
1777572500978,2237
1777572500980,2235
1777572500982,2232
1777572500984,2226
1777572500966,2222
1777572500968,2221
1777572500970,2229
1777572500972,2236
1777572500974,2242
1777572500976,2243
1777572500978,2236
1777572500980,2236
1777572500982,2236
1777572500984,2244
1777572501011,2256
1777572501013,2265
1777572501015,2272
1777572501017,2266
1777572501019,2297
1777572501021,2316
1777572501023,2317
1777572501025,2319
1777572501027,2324
1777572501029,2322
1777572501011,2319
1777572501013,2315
1777572501015,2314
1777572501017,2317
1777572501019,2321
1777572501021,2320
1777572501023,2314
1777572501025,2305
1777572501027,2302
1777572501029,2303
1777572501056,2311
1777572501058,2319
1777572501060,2326
1777572501062,2332
1777572501064,2341
1777572501066,2338
1777572501068,2331
1777572501070,2350
1777572501072,2354
1777572501074,2354
1777572501056,2358
1777572501058,2362
1777572501060,2363
1777572501062,2365
1777572501064,2357
1777572501066,2356
1777572501068,2350
1777572501070,2346
1777572501072,2335
1777572501074,2329
1777572501104,2323
1777572501106,2329
1777572501108,2336
1777572501110,2345
1777572501112,2348
1777572501114,2349
1777572501116,2333
1777572501118,2312
1777572501120,2276
1777572501122,2301
1777572501104,2314
1777572501106,2328
1777572501108,2331
1777572501110,2329
1777572501112,2339
1777572501114,2341
1777572501116,2332
1777572501118,2325
1777572501120,2319
1777572501122,2317
1777572501145,2315
1777572501147,2315
1777572501149,2315
1777572501151,2320
1777572501153,2328
1777572501155,2334
1777572501157,2323
1777572501159,2317
1777572501161,2316
1777572501163,2315
1777572501145,2320
1777572501147,2328
1777572501149,2355
1777572501151,2369
1777572501153,2377
1777572501155,2391
1777572501157,2397
1777572501159,2401
1777572501161,2402
1777572501163,2409
1777572501145,2420
1777572501147,2437
1777572501149,2457
1777572501151,2484
1777572501153,2515
1777572501155,2545
1777572501157,2575
1777572501159,2602
1777572501161,2644
1777572501163,2709
1777572501202,2789
1777572501204,2879
1777572501206,2971
1777572501208,3041
1777572501210,3143
1777572501212,3202
1777572501214,3206
1777572501216,3181
1777572501218,3145
1777572501220,3096
1777572501202,3031
1777572501204,2941
1777572501206,2841
1777572501208,2745
1777572501210,2654
1777572501212,2566
1777572501214,2478
1777572501216,2398
1777572501218,2341
1777572501220,2305
1777572501236,2283
1777572501238,2268
1777572501240,2263
1777572501242,2260
1777572501244,2260
1777572501246,2270
1777572501248,2276
1777572501250,2312
1777572501252,2328
1777572501254,2332
1777572501236,2340
1777572501238,2351
1777572501240,2361
1777572501242,2366
1777572501244,2381
1777572501246,2390
1777572501248,2393
1777572501250,2390
1777572501252,2388
1777572501254,2389
1777572501280,2389
1777572501282,2402
1777572501284,2414
1777572501286,2429
1777572501288,2439
1777572501290,2447
1777572501292,2442
1777572501294,2437
1777572501296,2417
1777572501298,2454
1777572501280,2465
1777572501282,2478
1777572501284,2486
1777572501286,2486
1777572501288,2488
1777572501290,2494
1777572501292,2495
1777572501294,2489
1777572501296,2486
1777572501298,2485
1777572501329,2485
1777572501331,2485
1777572501333,2489
1777572501335,2492
1777572501337,2505
1777572501339,2517
1777572501341,2520
1777572501343,2522
1777572501345,2521
1777572501347,2516
1777572501329,2518
1777572501331,2521
1777572501333,2548
1777572501335,2561
1777572501337,2568
1777572501339,2574
1777572501341,2577
1777572501343,2577
1777572501345,2575
1777572501347,2571
1777572501329,2577
1777572501331,2585
1777572501333,2595
1777572501335,2609
1777572501337,2623
1777572501339,2631
1777572501341,2636
1777572501343,2635
1777572501345,2637
1777572501347,2647
1777572501370,2663
1777572501372,2669
1777572501374,2670
1777572501376,2656
1777572501378,2684
1777572501380,2708
1777572501382,2718
1777572501384,2717
1777572501386,2714
1777572501388,2712
1777572501370,2715
1777572501372,2721
1777572501374,2730
1777572501376,2742
1777572501378,2747
1777572501380,2761
1777572501382,2760
1777572501384,2758
1777572501386,2752
1777572501388,2757
1777572501425,2760
1777572501427,2778
1777572501429,2792
1777572501431,2798
1777572501433,2797
1777572501435,2793
1777572501437,2785
1777572501439,2806
1777572501441,2803
1777572501443,2804
1777572501425,2799
1777572501427,2794
1777572501429,2791
1777572501431,2782
1777572501433,2775
1777572501435,2765
1777572501437,2750
1777572501439,2729
1777572501441,2708
1777572501443,2687
1777572501460,2676
1777572501462,2665
1777572501464,2648
1777572501466,2631
1777572501468,2623
1777572501470,2616
1777572501472,2588
1777572501474,2554
1777572501476,2510
1777572501478,2518
1777572501460,2507
1777572501462,2498
1777572501464,2478
1777572501466,2470
1777572501468,2461
1777572501470,2455
1777572501472,2441
1777572501474,2424
1777572501476,2410
1777572501478,2399
1777572501505,2394
1777572501507,2390
1777572501509,2380
1777572501511,2371
1777572501513,2362
1777572501515,2351
1777572501517,2352
1777572501519,2352
1777572501521,2348
1777572501523,2336
1777572501505,2326
1777572501507,2318
1777572501509,2343
1777572501511,2347
1777572501513,2349
1777572501515,2353
1777572501517,2350
1777572501519,2345
1777572501521,2336
1777572501523,2332
1777572501505,2336
1777572501507,2344
1777572501509,2346
1777572501511,2347
1777572501513,2341
1777572501515,2338
1777572501517,2329
1777572501519,2320
1777572501521,2322
1777572501523,2323
1777572501554,2330
1777572501556,2335
1777572501558,2346
1777572501560,2336
1777572501562,2370
1777572501564,2394
1777572501566,2390
1777572501568,2370
1777572501570,2349
1777572501572,2335
1777572501554,2334
1777572501556,2336
1777572501558,2339
1777572501560,2341
1777572501562,2345
1777572501564,2360
1777572501566,2363
1777572501568,2361
1777572501570,2361
1777572501572,2362
1777572501595,2360
1777572501597,2363
1777572501599,2369
1777572501601,2375
1777572501603,2370
1777572501605,2375
1777572501607,2371
1777572501609,2396
1777572501611,2388
1777572501613,2383
1777572501595,2392
1777572501597,2399
1777572501599,2400
1777572501601,2401
1777572501603,2405
1777572501605,2410
1777572501607,2412
1777572501609,2412
1777572501611,2407
1777572501613,2396
1777572501650,2392
1777572501652,2393
1777572501654,2395
1777572501656,2406
1777572501658,2414
1777572501660,2422
1777572501662,2412
1777572501664,2409
1777572501666,2380
1777572501668,2407
1777572501685,2413
1777572501687,2423
1777572501689,2423
1777572501691,2431
1777572501693,2430
1777572501695,2432
1777572501697,2430
1777572501699,2427
1777572501701,2422
1777572501703,2420
1777572501685,2426
1777572501687,2432
1777572501689,2439
1777572501691,2441
1777572501693,2438
1777572501695,2435
1777572501697,2440
1777572501699,2429
1777572501701,2414
1777572501703,2395
1777572501685,2389
1777572501687,2385
1777572501689,2409
1777572501691,2412
1777572501693,2417
1777572501695,2424
1777572501697,2417
1777572501699,2406
1777572501701,2393
1777572501703,2390
1777572501687,2391
1777572501689,2395
1777572501691,2397
1777572501693,2398
1777572501695,2394
1777572501697,2395
1777572501699,2389
1777572501701,2377
1777572501703,2366
1777572501705,2362
1777572501731,2358
1777572501733,2356
1777572501735,2361
1777572501737,2349
1777572501739,2370
1777572501741,2399
1777572501743,2390
1777572501745,2371
1777572501747,2351
1777572501749,2342
1777572501777,2341
1777572501779,2340
1777572501781,2338
1777572501783,2323
1777572501785,2322
1777572501787,2318
1777572501789,2316
1777572501791,2311
1777572501793,2303
1777572501795,2302
1777572501777,2312
1777572501779,2319
1777572501781,2323
1777572501783,2322
1777572501785,2314
1777572501787,2311
1777572501789,2303
1777572501791,2315
1777572501793,2312
1777572501795,2309
1777572501777,2308
1777572501779,2309
1777572501781,2309
1777572501783,2313
1777572501785,2314
1777572501787,2316
1777572501789,2315
1777572501791,2311
1777572501793,2302
1777572501795,2302
1777572501821,2305
1777572501823,2311
1777572501825,2313
1777572501827,2318
1777572501829,2325
1777572501831,2327
1777572501833,2321
1777572501835,2308
1777572501837,2276
1777572501839,2290
1777572501821,2302
1777572501823,2298
1777572501825,2299
1777572501827,2297
1777572501829,2291
1777572501831,2293
1777572501833,2294
1777572501835,2293
1777572501837,2285
1777572501839,2281
1777572501821,2282
1777572501823,2280
1777572501825,2282
1777572501827,2283
1777572501829,2278
1777572501831,2280
1777572501833,2278
1777572501835,2276
1777572501837,2275
1777572501839,2267
1777572501873,2266
1777572501875,2252
1777572501877,2293
1777572501879,2296
1777572501881,2296
1777572501883,2299
1777572501885,2290
1777572501887,2269
1777572501889,2247
1777572501891,2231
1777572501873,2225
1777572501875,2222
1777572501877,2220
1777572501879,2216
1777572501881,2218
1777572501883,2237
1777572501885,2247
1777572501887,2247
1777572501889,2236
1777572501891,2221
1777572501910,2206
1777572501912,2208
1777572501914,2216
1777572501916,2207
1777572501918,2246
1777572501920,2252
1777572501922,2253
1777572501924,2253
1777572501926,2252
1777572501928,2252
1777572501910,2252
1777572501912,2254
1777572501914,2255
1777572501916,2254
1777572501918,2258
1777572501920,2266
1777572501922,2267
1777572501924,2266
1777572501926,2262
1777572501928,2256
1777572501955,2257
1777572501957,2257
1777572501959,2263
1777572501961,2267
1777572501963,2265
1777572501965,2263
1777572501967,2252
1777572501969,2268
1777572501971,2258
1777572501973,2250
1777572501955,2249
1777572501957,2250
1777572501959,2252
1777572501961,2268
1777572501963,2273
1777572501965,2281
1777572501967,2288
1777572501969,2297
1777572501971,2305
1777572501973,2311
1777572502001,2306
1777572502003,2298
1777572502005,2294
1777572502007,2294
1777572502009,2290
1777572502011,2282
1777572502013,2279
1777572502015,2269
1777572502017,2239
1777572502019,2260
1777572502001,2264
1777572502003,2267
1777572502005,2281
1777572502007,2293
1777572502009,2302
1777572502011,2318
1777572502013,2325
1777572502015,2318
1777572502017,2308
1777572502019,2297
1777572502001,2295
1777572502003,2289
1777572502005,2285
1777572502007,2280
1777572502009,2266
1777572502011,2265
1777572502013,2256
1777572502015,2242
1777572502017,2227
1777572502019,2206
1777572502047,2203
1777572502049,2188
1777572502051,2223
1777572502053,2231
1777572502055,2232
1777572502057,2233
1777572502059,2223
1777572502061,2208
1777572502063,2194
1777572502065,2185
1777572502097,2173
1777572502099,2170
1777572502101,2173
1777572502103,2176
1777572502105,2185
1777572502107,2191
1777572502109,2191
1777572502111,2186
1777572502113,2178
1777572502115,2175
1777572502097,2176
1777572502099,2174
1777572502101,2171
1777572502103,2159
1777572502105,2204
1777572502107,2204
1777572502109,2212
1777572502111,2219
1777572502113,2209
1777572502115,2201
1777572502097,2198
1777572502099,2191
1777572502101,2186
1777572502103,2187
1777572502105,2184
1777572502107,2186
1777572502109,2189
1777572502111,2189
1777572502113,2177
1777572502115,2166
1777572502135,2167
1777572502137,2174
1777572502139,2192
1777572502141,2209
1777572502143,2223
1777572502145,2245
1777572502147,2254
1777572502149,2314
1777572502151,2346
1777572502153,2380
1777572502135,2439
1777572502137,2517
1777572502139,2601
1777572502141,2694
1777572502143,2777
1777572502145,2842
1777572502147,2872
1777572502149,2867
1777572502151,2838
1777572502153,2801
1777572502180,2761
1777572502182,2706
1777572502184,2639
1777572502186,2567
1777572502188,2491
1777572502190,2416
1777572502192,2336
1777572502194,2253
1777572502196,2159
1777572502198,2124
1777572502180,2087
1777572502182,2059
1777572502184,2049
1777572502186,2037
1777572502188,2029
1777572502190,2030
1777572502192,2027
1777572502194,2021
1777572502196,2009
1777572502198,2003
1777572502180,2006
1777572502182,2009
1777572502184,2019
1777572502186,2029
1777572502188,2039
1777572502190,2056
1777572502192,2065
1777572502194,2075
1777572502196,2083
1777572502198,2085
1777572502226,2083
1777572502228,2066
1777572502230,2095
1777572502232,2092
1777572502234,2084
1777572502236,2080
1777572502238,2077
1777572502240,2074
1777572502242,2069
1777572502244,2062
1777572502278,2055
1777572502280,2054
1777572502282,2056
1777572502284,2058
1777572502286,2061
1777572502288,2073
1777572502290,2081
1777572502292,2081
1777572502294,2082
1777572502296,2080
1777572502278,2082
1777572502280,2080
1777572502282,2083
1777572502284,2080
1777572502286,2104
1777572502288,2109
1777572502290,2115
1777572502292,2124
1777572502294,2125
1777572502296,2123
1777572502278,2128
1777572502280,2131
1777572502282,2135
1777572502284,2145
1777572502286,2150
1777572502288,2160
1777572502290,2169
1777572502292,2181
1777572502294,2185
1777572502296,2184
1777572502360,2181
1777572502362,2182
1777572502364,2186
1777572502366,2190
1777572502368,2185
1777572502370,2192
1777572502372,2184
1777572502374,2217
1777572502376,2213
1777572502378,2209
1777572502360,2210
1777572502362,2214
1777572502364,2218
1777572502366,2217
1777572502368,2217
1777572502370,2221
1777572502372,2232
1777572502374,2237
1777572502376,2245
1777572502378,2248
1777572502361,2256
1777572502363,2260
1777572502365,2267
1777572502367,2279
1777572502369,2277
1777572502371,2289
1777572502373,2305
1777572502375,2316
1777572502377,2322
1777572502379,2348
1777572502362,2364
1777572502364,2384
1777572502366,2399
1777572502368,2410
1777572502370,2416
1777572502372,2428
1777572502374,2439
1777572502376,2436
1777572502378,2426
1777572502380,2417
1777572502405,2411
1777572502407,2410
1777572502409,2412
1777572502411,2409
1777572502413,2407
1777572502415,2401
1777572502417,2393
1777572502419,2380
1777572502421,2358
1777572502423,2326
1777572502406,2305
1777572502408,2270
1777572502410,2304
1777572502412,2295
1777572502414,2272
1777572502416,2247
1777572502418,2212
1777572502420,2187
1777572502422,2159
1777572502424,2131
1777572502453,2115
1777572502455,2102
1777572502457,2084
1777572502459,2077
1777572502461,2068
1777572502463,2073
1777572502465,2075
1777572502467,2062
1777572502469,2042
1777572502471,2017
1777572502453,2004
1777572502455,1991
1777572502457,1983
1777572502459,1960
1777572502461,1988
1777572502463,1983
1777572502465,1982
1777572502467,1979
1777572502469,1979
1777572502471,1979
1777572502495,1978
1777572502497,1975
1777572502499,1974
1777572502501,1977
1777572502503,1973
1777572502505,1977
1777572502507,1980
1777572502509,1982
1777572502511,1980
1777572502513,1978
1777572502495,1973
1777572502497,1966
1777572502499,1967
1777572502501,1976
1777572502503,1973
1777572502505,1983
1777572502507,1978
1777572502509,2012
1777572502511,2013
1777572502513,2007
1777572502495,1995
1777572502497,1989
1777572502499,1988
1777572502501,1988
1777572502503,1988
1777572502505,1995
1777572502507,2005
1777572502509,2011
1777572502511,2010
1777572502513,2003
1777572502545,2002
1777572502547,2008
1777572502549,2014
1777572502551,2015
1777572502553,2010
1777572502555,2019
1777572502557,2029
1777572502559,2041
1777572502561,2028
1777572502563,2045
1777572502545,2074
1777572502547,2073
1777572502549,2079
1777572502551,2088
1777572502553,2093
1777572502555,2099
1777572502557,2105
1777572502559,2103
1777572502561,2100
1777572502563,2101
1777572502585,2106
1777572502587,2119
1777572502589,2133
1777572502591,2135
1777572502593,2138
1777572502595,2139
1777572502597,2141
1777572502599,2138
1777572502601,2132
1777572502603,2121
1777572502585,2118
1777572502587,2112
1777572502589,2146
1777572502591,2156
1777572502593,2160
1777572502595,2160
1777572502597,2157
1777572502599,2155
1777572502601,2151
1777572502603,2150
1777572502640,2153
1777572502642,2154
1777572502644,2153
1777572502646,2159
1777572502648,2161
1777572502650,2173
1777572502652,2188
1777572502654,2190
1777572502656,2188
1777572502658,2187
1777572502640,2188
1777572502642,2186
1777572502644,2188
1777572502646,2175
1777572502648,2210
1777572502650,2216
1777572502652,2226
1777572502654,2227
1777572502656,2224
1777572502658,2219
1777572502640,2217
1777572502642,2219
1777572502644,2235
1777572502646,2236
1777572502648,2232
1777572502650,2236
1777572502652,2241
1777572502654,2250
1777572502656,2251
1777572502658,2245
1777572502675,2240
1777572502677,2243
1777572502679,2248
1777572502681,2251
1777572502683,2245
1777572502685,2251
1777572502687,2236
1777572502689,2277
1777572502691,2274
1777572502693,2269
1777572502675,2257
1777572502677,2253
1777572502679,2257
1777572502681,2264
1777572502683,2265
1777572502685,2267
1777572502687,2268
1777572502689,2271
1777572502691,2268
1777572502693,2266
1777572502720,2266
1777572502722,2268
1777572502724,2275
1777572502726,2279
1777572502728,2295
1777572502730,2304
1777572502732,2302
1777572502734,2298
1777572502736,2274
1777572502738,2299
1777572502720,2306
1777572502722,2316
1777572502724,2326
1777572502726,2338
1777572502728,2343
1777572502730,2351
1777572502732,2353
1777572502734,2364
1777572502736,2365
1777572502738,2363
1777572502770,2359
1777572502772,2362
1777572502774,2359
1777572502776,2369
1777572502778,2384
1777572502780,2403
1777572502782,2417
1777572502784,2425
1777572502786,2427
1777572502788,2421
1777572502770,2416
1777572502772,2409
1777572502774,2444
1777572502776,2454
1777572502778,2460
1777572502780,2463
1777572502782,2470
1777572502784,2467
1777572502786,2466
1777572502788,2459
1777572502811,2452
1777572502813,2444
1777572502815,2453
1777572502817,2465
1777572502819,2478
1777572502821,2489
1777572502823,2494
1777572502825,2502
1777572502827,2496
1777572502829,2490
1777572502811,2489
1777572502813,2492
1777572502815,2501
1777572502817,2492
1777572502819,2521
1777572502821,2532
1777572502823,2548
1777572502825,2558
1777572502827,2556
1777572502829,2552
1777572502811,2545
1777572502813,2541
1777572502815,2548
1777572502817,2558
1777572502819,2573
1777572502821,2585
1777572502823,2590
1777572502825,2597
1777572502827,2601
1777572502829,2596
1777572502865,2595
1777572502867,2601
1777572502869,2609
1777572502871,2619
1777572502873,2631
1777572502875,2638
1777572502877,2637
1777572502879,2692
1777572502881,2698
1777572502883,2695
1777572502865,2675
1777572502867,2662
1777572502869,2652
1777572502871,2641
1777572502873,2632
1777572502875,2633
1777572502877,2643
1777572502879,2656
1777572502881,2662
1777572502883,2665
1777572502900,2672
1777572502902,2685
1777572502904,2690
1777572502906,2694
1777572502908,2699
1777572502910,2701
1777572502912,2695
1777572502914,2686
1777572502916,2660
1777572502918,2683
1777572502900,2677
1777572502902,2666
1777572502904,2662
1777572502906,2662
1777572502908,2662
1777572502910,2663
1777572502912,2667
1777572502914,2682
1777572502916,2685
1777572502918,2682
1777572502946,2682
1777572502948,2675
1777572502950,2672
1777572502952,2681
1777572502954,2684
1777572502956,2693
1777572502958,2698
1777572502960,2701
1777572502962,2702
1777572502964,2693
1777572502946,2694
1777572502948,2684
1777572502950,2710
1777572502952,2708
1777572502954,2709
1777572502956,2714
1777572502958,2726
1777572502960,2734
1777572502962,2735
1777572502964,2733
1777572503035,2738
1777572503037,2740
1777572503039,2751
1777572503041,2764
1777572503043,2771
1777572503045,2780
1777572503047,2787
1777572503049,2789
1777572503051,2786
1777572503053,2780
1777572503035,2773
1777572503037,2764
1777572503039,2763
1777572503041,2746
1777572503043,2772
1777572503045,2785
1777572503047,2794
1777572503049,2802
1777572503051,2811
1777572503053,2815
1777572503035,2819
1777572503037,2841
1777572503039,2871
1777572503041,2911
1777572503043,2950
1777572503045,2998
1777572503047,3052
1777572503049,3118
1777572503051,3193
1777572503053,3278
1777572503037,3368
1777572503039,3464
1777572503041,3555
1777572503043,3617
1777572503045,3649
1777572503047,3653
1777572503049,3637
1777572503051,3604
1777572503053,3538
1777572503055,3452
1777572503037,3360
1777572503039,3261
1777572503041,3161
1777572503043,3070
1777572503045,2984
1777572503047,2907
1777572503049,2835
1777572503051,2787
1777572503053,2748
1777572503055,2720
1777572503094,2700
1777572503096,2692
1777572503098,2682
1777572503100,2682
1777572503102,2684
1777572503104,2699
1777572503106,2714
1777572503108,2731
1777572503110,2729
1777572503112,2737
1777572503094,2778
1777572503096,2777
1777572503098,2774
1777572503100,2770
1777572503102,2767
1777572503104,2762
1777572503106,2764
1777572503108,2761
1777572503110,2761
1777572503112,2761
1777572503125,2759
1777572503127,2755
1777572503129,2758
1777572503131,2763
1777572503133,2774
1777572503135,2786
1777572503137,2794
1777572503139,2796
1777572503141,2796
1777572503143,2781
1777572503125,2773
1777572503127,2759
1777572503129,2789
1777572503131,2805
1777572503133,2812
1777572503135,2825
1777572503137,2836
1777572503139,2850
1777572503141,2858
1777572503143,2852
1777572503125,2845
1777572503127,2842
1777572503129,2853
1777572503131,2857
1777572503133,2862
1777572503135,2873
1777572503137,2881
1777572503139,2895
1777572503141,2904
1777572503143,2900
1777572503170,2896
1777572503172,2891
1777572503174,2893
1777572503176,2883
1777572503178,2912
1777572503180,2938
1777572503182,2940
1777572503184,2940
1777572503186,2939
1777572503188,2930
1777572503170,2914
1777572503172,2911
1777572503174,2909
1777572503176,2915
1777572503178,2926
1777572503180,2944
1777572503182,2963
1777572503184,2979
1777572503186,2985
1777572503188,2986
1777572503218,2988
1777572503220,2987
1777572503222,2994
1777572503224,3002
1777572503226,3018
1777572503228,3034
1777572503230,3035
1777572503232,3077
1777572503234,3097
1777572503236,3105
1777572503218,3102
1777572503220,3098
1777572503222,3103
1777572503224,3113
1777572503226,3128
1777572503228,3146
1777572503230,3159
1777572503232,3164
1777572503234,3163
1777572503236,3155
1777572503262,3146
1777572503264,3142
1777572503266,3134
1777572503268,3140
1777572503270,3138
1777572503272,3140
1777572503274,3138
1777572503276,3135
1777572503278,3113
1777572503280,3124
1777572503313,3114
1777572503315,3103
1777572503317,3088
1777572503319,3076
1777572503321,3065
1777572503323,3053
1777572503325,3046
1777572503327,3031
1777572503329,3012
1777572503331,2989
1777572503313,2964
1777572503315,2934
1777572503317,2920
1777572503319,2905
1777572503321,2884
1777572503323,2868
1777572503325,2850
1777572503327,2838
1777572503329,2825
1777572503331,2800
1777572503313,2780
1777572503315,2736
1777572503317,2764
1777572503319,2747
1777572503321,2720
1777572503323,2699
1777572503325,2677
1777572503327,2656
1777572503329,2639
1777572503331,2631
1777572503313,2619
1777572503315,2612
1777572503317,2605
1777572503319,2602
1777572503321,2609
1777572503323,2610
1777572503325,2618
1777572503327,2619
1777572503329,2623
1777572503331,2622
1777572503361,2616
1777572503363,2605
1777572503365,2597
1777572503367,2575
1777572503369,2570
1777572503371,2600
1777572503373,2604
1777572503375,2611
1777572503377,2611
1777572503379,2602
1777572503361,2588
1777572503363,2575
1777572503365,2568
1777572503367,2567
1777572503369,2571
1777572503371,2583
1777572503373,2579
1777572503375,2581
1777572503377,2584
1777572503379,2582
1777572503395,2573
1777572503397,2571
1777572503399,2577
1777572503401,2580
1777572503403,2578
1777572503405,2578
1777572503407,2568
1777572503409,2601
1777572503411,2606
1777572503413,2611
1777572503395,2614
1777572503397,2614
1777572503399,2619
1777572503401,2621
1777572503403,2623
1777572503405,2619
1777572503407,2627
1777572503409,2634
1777572503411,2642
1777572503413,2647
1777572503441,2645
1777572503443,2639
1777572503445,2641
1777572503447,2649
1777572503449,2654
1777572503451,2665
1777572503453,2665
1777572503455,2667
1777572503457,2662
1777572503459,2692
1777572503441,2701
1777572503443,2697
1777572503445,2685
1777572503447,2682
1777572503449,2673
1777572503451,2670
1777572503453,2675
1777572503455,2682
1777572503457,2686
1777572503459,2685
1777572503538,2681
1777572503540,2675
1777572503542,2681
1777572503544,2685
1777572503546,2691
1777572503548,2694
1777572503550,2695
1777572503552,2699
1777572503554,2697
1777572503556,2684
1777572503575,2675
1777572503577,2659
1777572503579,2682
1777572503581,2681
1777572503583,2685
1777572503585,2688
1777572503587,2683
1777572503589,2684
1777572503591,2690
1777572503593,2690
1777572503575,2679
1777572503577,2674
1777572503579,2665
1777572503581,2666
1777572503583,2665
1777572503585,2670
1777572503587,2669
1777572503589,2668
1777572503591,2670
1777572503593,2673
1777572503575,2675
1777572503577,2668
1777572503579,2656
1777572503581,2649
1777572503583,2661
1777572503585,2676
1777572503587,2692
1777572503589,2711
1777572503591,2714
1777572503593,2710
1777572503577,2702
1777572503579,2699
1777572503581,2697
1777572503583,2703
1777572503585,2715
1777572503587,2725
1777572503589,2725
1777572503591,2728
1777572503593,2728
1777572503595,2722
1777572503577,2711
1777572503579,2699
1777572503581,2687
1777572503583,2683
1777572503585,2683
1777572503587,2696
1777572503589,2702
1777572503591,2736
1777572503593,2746
1777572503595,2748
1777572503577,2746
1777572503579,2735
1777572503581,2732
1777572503583,2733
1777572503585,2732
1777572503587,2734
1777572503589,2741
1777572503591,2745
1777572503593,2742
1777572503595,2734
1777572503620,2727
1777572503622,2711
1777572503624,2700
1777572503626,2695
1777572503628,2699
1777572503630,2710
1777572503632,2709
1777572503634,2711
1777572503636,2699
1777572503638,2687
1777572503620,2716
1777572503622,2705
1777572503624,2690
1777572503626,2682
1777572503628,2670
1777572503630,2657
1777572503632,2640
1777572503634,2633
1777572503636,2628
1777572503638,2615
1777572503666,2598
1777572503668,2593
1777572503670,2589
1777572503672,2589
1777572503674,2600
1777572503676,2617
1777572503678,2621
1777572503680,2629
1777572503682,2636
1777572503684,2634
1777572503666,2633
1777572503668,2617
1777572503670,2641
1777572503672,2642
1777572503674,2654
1777572503676,2663
1777572503678,2666
1777572503680,2667
1777572503682,2667
1777572503684,2665
1777572503666,2663
1777572503668,2661
1777572503670,2662
1777572503672,2667
1777572503674,2672
1777572503676,2677
1777572503678,2675
1777572503680,2683
1777572503682,2683
1777572503684,2684
1777572503761,2682
1777572503763,2674
1777572503765,2672
1777572503767,2667
1777572503769,2684
1777572503771,2697
1777572503773,2689
1777572503775,2691
1777572503777,2693
1777572503779,2689
1777572503761,2679
1777572503763,2669
1777572503765,2662
1777572503767,2653
1777572503769,2653
1777572503771,2657
1777572503773,2670
1777572503775,2681
1777572503777,2685
1777572503779,2684
1777572503761,2685
1777572503763,2682
1777572503765,2670
1777572503767,2672
1777572503769,2680
1777572503771,2689
1777572503773,2705
1777572503775,2739
1777572503777,2769
1777572503779,2790
1777572503761,2800
1777572503763,2806
1777572503765,2809
1777572503767,2809
1777572503769,2802
1777572503771,2813
1777572503773,2820
1777572503775,2825
1777572503777,2827
1777572503779,2825
1777572503810,2815
1777572503812,2802
1777572503814,2798
1777572503816,2796
1777572503818,2795
1777572503820,2804
1777572503822,2806
1777572503824,2808
1777572503826,2791
1777572503828,2790
1777572503810,2800
1777572503812,2781
1777572503814,2759
1777572503816,2736
1777572503818,2716
1777572503820,2714
1777572503822,2711
1777572503824,2707
1777572503826,2698
1777572503828,2688
1777572503845,2680
1777572503847,2677
1777572503849,2669
1777572503851,2667
1777572503853,2669
1777572503855,2676
1777572503857,2680
1777572503859,2676
1777572503861,2670
1777572503863,2660
1777572503846,2657
1777572503848,2631
1777572503850,2642
1777572503852,2637
1777572503854,2641
1777572503856,2651
1777572503858,2662
1777572503860,2673
1777572503862,2681
1777572503864,2681
1777572503846,2676
1777572503848,2664
1777572503850,2656
1777572503852,2650
1777572503854,2648
1777572503856,2648
1777572503858,2648
1777572503860,2655
1777572503862,2661
1777572503864,2666
1777572503891,2666
1777572503893,2657
1777572503895,2655
1777572503897,2643
1777572503899,2663
1777572503901,2683
1777572503903,2681
1777572503905,2681
1777572503907,2674
1777572503909,2669
1777572503891,2655
1777572503893,2635
1777572503895,2626
1777572503897,2624
1777572503899,2622
1777572503901,2627
1777572503903,2643
1777572503905,2669
1777572503907,2698
1777572503909,2729
1777572503935,2757
1777572503937,2776
1777572503939,2802
1777572503941,2848
1777572503943,2914
1777572503945,3003
1777572503947,3095
1777572503949,3230
1777572503951,3341
1777572503953,3442
1777572503935,3587
1777572503937,3562
1777572503939,3565
1777572503941,3541
1777572503943,3503
1777572503945,3464
1777572503947,3393
1777572503949,3304
1777572503951,3201
1777572503953,3093
1777572503986,2977
1777572503988,2866
1777572503990,2761
1777572503992,2674
1777572503994,2606
1777572503996,2558
1777572503998,2524
1777572504000,2508
1777572504002,2491
1777572504004,2520
1777572503986,2523
1777572503988,2523
1777572503990,2528
1777572503992,2530
1777572503994,2541
1777572503996,2551
1777572503998,2554
1777572504000,2571
1777572504002,2588
1777572504004,2593
1777572504025,2591
1777572504027,2585
1777572504029,2579
1777572504031,2580
1777572504033,2579
1777572504035,2583
1777572504037,2576
1777572504039,2572
1777572504041,2572
1777572504043,2571
1777572504025,2568
1777572504027,2550
1777572504029,2573
1777572504031,2586
1777572504033,2588
1777572504035,2595
1777572504037,2604
1777572504039,2613
1777572504041,2615
1777572504043,2607
1777572504025,2605
1777572504027,2601
1777572504029,2592
1777572504031,2586
1777572504033,2580
1777572504035,2568
1777572504037,2568
1777572504039,2567
1777572504041,2568
1777572504043,2566
1777572504082,2563
1777572504084,2548
1777572504086,2539
1777572504088,2516
1777572504090,2531
1777572504092,2549
1777572504094,2552
1777572504096,2555
1777572504098,2553
1777572504100,2548
1777572504082,2541
1777572504084,2532
1777572504086,2521
1777572504088,2513
1777572504090,2503
1777572504092,2507
1777572504094,2507
1777572504096,2513
1777572504098,2524
1777572504100,2529
1777572504115,2523
1777572504117,2515
1777572504119,2514
1777572504121,2509
1777572504123,2506
1777572504125,2508
1777572504127,2499
1777572504129,2535
1777572504131,2545
1777572504133,2550
1777572504115,2550
1777572504117,2546
1777572504119,2536
1777572504121,2527
1777572504123,2521
1777572504125,2525
1777572504127,2533
1777572504129,2540
1777572504131,2552
1777572504133,2557
1777572504161,2557
1777572504163,2559
1777572504165,2555
1777572504167,2553
1777572504169,2555
1777572504171,2565
1777572504173,2562
1777572504175,2556
1777572504177,2539
1777572504179,2565
1777572504161,2562
1777572504163,2548
1777572504165,2531
1777572504167,2513
1777572504169,2501
1777572504171,2491
1777572504173,2489
1777572504175,2492
1777572504177,2495
1777572504179,2491
1777572504210,2471
1777572504212,2440
1777572504214,2406
1777572504216,2369
1777572504218,2331
1777572504220,2296
1777572504222,2267
1777572504224,2248
1777572504226,2226
1777572504228,2188
1777572504210,2155
1777572504212,2104
1777572504214,2089
1777572504216,2064
1777572504218,2045
1777572504220,2025
1777572504222,2008
1777572504224,1993
1777572504226,1983
1777572504228,1963
1777572504210,1937
1777572504212,1907
1777572504214,1877
1777572504216,1853
1777572504218,1834
1777572504220,1820
1777572504222,1819
1777572504224,1816
1777572504226,1803
1777572504228,1781
1777572504260,1760
1777572504262,1729
1777572504264,1702
1777572504266,1662
1777572504268,1662
1777572504270,1674
1777572504272,1670
1777572504274,1660
1777572504276,1648
1777572504278,1632
1777572504260,1622
1777572504262,1610
1777572504264,1601
1777572504266,1595
1777572504268,1579
1777572504270,1572
1777572504272,1561
1777572504274,1557
1777572504276,1549
1777572504278,1533
1777572504310,1512
1777572504312,1502
1777572504314,1489
1777572504316,1483
1777572504318,1477
1777572504320,1479
1777572504322,1464
1777572504324,1495
1777572504326,1497
1777572504328,1490
1777572504310,1478
1777572504312,1465
1777572504314,1449
1777572504316,1433
1777572504318,1431
1777572504320,1433
1777572504322,1427
1777572504324,1421
1777572504326,1419
1777572504328,1416
1777572504386,1414
1777572504388,1406
1777572504390,1397
1777572504392,1389
1777572504394,1383
1777572504396,1390
1777572504398,1380
1777572504400,1371
1777572504402,1351
1777572504404,1369
1777572504387,1371
1777572504389,1369
1777572504391,1355
1777572504393,1351
1777572504395,1341
1777572504397,1340
1777572504399,1339
1777572504401,1343
1777572504403,1352
1777572504405,1351
1777572504387,1341
1777572504389,1326
1777572504391,1311
1777572504393,1299
1777572504395,1286
1777572504397,1275
1777572504399,1276
1777572504401,1274
1777572504403,1273
1777572504405,1264
1777572504387,1260
1777572504389,1253
1777572504391,1252
1777572504393,1243
1777572504395,1234
1777572504397,1227
1777572504399,1226
1777572504401,1231
1777572504403,1240
1777572504405,1241
1777572504387,1241
1777572504389,1234
1777572504391,1223
1777572504393,1209
1777572504395,1191
1777572504397,1183
1777572504399,1178
1777572504401,1178
1777572504403,1177
1777572504405,1168
1777572504434,1157
1777572504436,1139
1777572504438,1129
1777572504440,1099
1777572504442,1078
1777572504444,1112
1777572504446,1098
1777572504448,1080
1777572504450,1059
1777572504452,1028
1777572504434,1001
1777572504436,976
1777572504438,951
1777572504440,931
1777572504442,918
1777572504444,920
1777572504446,915
1777572504448,919
1777572504450,920
1777572504452,921
1777572504477,913
1777572504479,908
1777572504481,895
1777572504483,886
1777572504485,872
1777572504487,874
1777572504489,861
1777572504491,886
1777572504493,884
1777572504495,877
1777572504477,875
1777572504479,870
1777572504481,856
1777572504483,840
1777572504485,828
1777572504487,823
1777572504489,816
1777572504491,812
1777572504493,814
1777572504495,818
1777572504527,811
1777572504529,797
1777572504531,779
1777572504533,762
1777572504535,755
1777572504537,758
1777572504539,756
1777572504541,765
1777572504543,758
1777572504545,784
1777572504527,781
1777572504529,772
1777572504531,759
1777572504533,753
1777572504535,745
1777572504537,746
1777572504539,745
1777572504541,738
1777572504543,728
1777572504545,718
1777572504527,714
1777572504529,711
1777572504531,701
1777572504533,697
1777572504535,689
1777572504537,684
1777572504539,685
1777572504541,686
1777572504543,685
1777572504545,675
1777572504577,668
1777572504579,634
1777572504581,661
1777572504583,652
1777572504585,644
1777572504587,650
1777572504589,658
1777572504591,654
1777572504593,638
1777572504595,628
1777572504577,615
1777572504579,597
1777572504581,582
1777572504583,573
1777572504585,562
1777572504587,567
1777572504589,569
1777572504591,571
1777572504593,574
1777572504595,576
1777572504610,572
1777572504612,559
1777572504614,549
1777572504616,526
1777572504618,549
1777572504620,565
1777572504622,567
1777572504624,564
1777572504626,565
1777572504628,567
1777572504610,560
1777572504612,553
1777572504614,546
1777572504616,535
1777572504618,530
1777572504620,523
1777572504622,520
1777572504624,523
1777572504626,530
1777572504628,521
1777572504660,517
1777572504662,510
1777572504664,502
1777572504666,494
1777572504668,482
1777572504670,486
1777572504672,472
1777572504674,504
1777572504676,507
1777572504678,508
1777572504660,507
1777572504662,497
1777572504664,483
1777572504666,478
1777572504668,476
1777572504670,477
1777572504672,474
1777572504674,474
1777572504676,472
1777572504678,466
1777572504700,459
1777572504702,456
1777572504704,450
1777572504706,452
1777572504708,454
1777572504710,455
1777572504712,457
1777572504714,462
1777572504716,466
1777572504718,510
1777572504700,533
1777572504702,536
1777572504704,527
1777572504706,520
1777572504708,515
1777572504710,519
1777572504712,524
1777572504714,525
1777572504716,526
1777572504718,524
1777572504700,518
1777572504702,511
1777572504704,505
1777572504706,501
1777572504708,501
1777572504710,505
1777572504712,506
1777572504714,505
1777572504716,507
1777572504718,506
1777572504752,521
1777572504754,493
1777572504756,525
1777572504758,518
1777572504760,500
1777572504762,488
1777572504764,475
1777572504766,471
1777572504768,463
1777572504770,456
1777572504752,447
1777572504754,437
1777572504756,430
1777572504758,428
1777572504760,425
1777572504762,424
1777572504764,419
1777572504766,420
1777572504768,419
1777572504770,424
1777572504795,416
1777572504797,413
1777572504799,406
1777572504801,383
1777572504803,411
1777572504805,431
1777572504807,441
1777572504809,450
1777572504811,454
1777572504813,457
1777572504795,459
1777572504797,458
1777572504799,450
1777572504801,439
1777572504803,438
1777572504805,442
1777572504807,445
1777572504809,454
1777572504811,460
1777572504813,468
1777572504835,470
1777572504837,464
1777572504839,457
1777572504841,452
1777572504843,444
1777572504845,447
1777572504847,446
1777572504849,478
1777572504851,490
1777572504853,503
1777572504835,510
1777572504837,508
1777572504839,492
1777572504841,486
1777572504843,485
1777572504845,494
1777572504847,509
1777572504849,534
1777572504851,557
1777572504853,586
1777572504881,617
1777572504883,649
1777572504885,679
1777572504887,721
1777572504889,779
1777572504891,852
1777572504893,945
1777572504895,1045
1777572504897,1129
1777572504899,1246
1777572504881,1328
1777572504883,1370
1777572504885,1383
1777572504887,1362
1777572504889,1319
1777572504891,1265
1777572504893,1189
1777572504895,1107
1777572504897,1020
1777572504899,938
1777572504881,856
1777572504883,766
1777572504885,677
1777572504887,600
1777572504889,535
1777572504891,500
1777572504893,476
1777572504895,462
1777572504897,462
1777572504899,468
1777572504925,483
1777572504927,474
1777572504929,512
1777572504931,515
1777572504933,518
1777572504935,535
1777572504937,548
1777572504939,562
1777572504941,571
1777572504943,580
1777572504976,593
1777572504978,601
1777572504980,602
1777572504982,594
1777572504984,595
1777572504986,600
1777572504988,605
1777572504990,622
1777572504992,639
1777572504994,655
1777572504976,668
1777572504978,670
1777572504980,667
1777572504982,654
1777572504984,672
1777572504986,684
1777572504988,690
1777572504990,709
1777572504992,726
1777572504994,743
1777572504976,748
1777572504978,753
1777572504980,750
1777572504982,751
1777572504984,752
1777572504986,763
1777572504988,776
1777572504990,783
1777572504992,793
1777572504994,803
1777572505015,812
1777572505017,817
1777572505019,817
1777572505021,814
1777572505023,807
1777572505025,810
1777572505027,802
1777572505029,846
1777572505031,858
1777572505033,860
1777572505015,857
1777572505017,854
1777572505019,857
1777572505021,860
1777572505023,863
1777572505025,876
1777572505027,893
1777572505029,911
1777572505031,921
1777572505033,925
1777572505060,941
1777572505062,950
1777572505064,953
1777572505066,955
1777572505068,958
1777572505070,967
1777572505072,984
1777572505074,1002
1777572505076,1004
1777572505078,1048
1777572505060,1078
1777572505062,1093
1777572505064,1103
1777572505066,1109
1777572505068,1121
1777572505070,1145
1777572505072,1169
1777572505074,1190
1777572505076,1212
1777572505078,1234
1777572505060,1248
1777572505062,1256
1777572505064,1255
1777572505066,1248
1777572505068,1241
1777572505070,1247
1777572505072,1257
1777572505074,1264
1777572505076,1273
1777572505078,1273
1777572505105,1275
1777572505107,1256
1777572505109,1295
1777572505111,1294
1777572505113,1289
1777572505115,1289
1777572505117,1286
1777572505119,1283
1777572505121,1276
1777572505123,1271
1777572505150,1264
1777572505152,1257
1777572505154,1243
1777572505156,1222
1777572505158,1204
1777572505160,1191
1777572505162,1180
1777572505164,1173
1777572505166,1164
1777572505168,1152
1777572505150,1145
1777572505152,1128
1777572505154,1099
1777572505156,1058
1777572505158,1056
1777572505160,1046
1777572505162,1043
1777572505164,1051
1777572505166,1053
1777572505168,1051
1777572505150,1046
1777572505152,1032
1777572505154,1013
1777572505156,1008
1777572505158,999
1777572505160,995
1777572505162,993
1777572505164,999
1777572505166,1005
1777572505168,1004
1777572505201,1001
1777572505203,997
1777572505205,989
1777572505207,984
1777572505209,968
1777572505211,968
1777572505213,947
1777572505215,993
1777572505217,1005
1777572505219,1016
1777572505201,1022
1777572505203,1018
1777572505205,1020
1777572505207,1013
1777572505209,1004
1777572505211,1004
1777572505213,1002
1777572505215,1005
1777572505217,1021
1777572505219,1041
1777572505240,1050
1777572505242,1050
1777572505244,1042
1777572505246,1034
1777572505248,1018
1777572505250,1018
1777572505252,1018
1777572505254,1025
1777572505256,1022
1777572505258,1063
1777572505240,1085
1777572505242,1099
1777572505244,1101
1777572505246,1105
1777572505248,1109
1777572505250,1123
1777572505252,1138
1777572505254,1151
1777572505256,1164
1777572505258,1178
1777572505285,1193
1777572505287,1202
1777572505289,1199
1777572505291,1191
1777572505293,1200
1777572505295,1209
1777572505297,1212
1777572505299,1220
1777572505301,1227
1777572505303,1226
1777572505285,1230
1777572505287,1225
1777572505289,1258
1777572505291,1259
1777572505293,1257
1777572505295,1260
1777572505297,1259
1777572505299,1274
1777572505301,1280
1777572505303,1291
1777572505331,1299
1777572505333,1304
1777572505335,1301
1777572505337,1304
1777572505339,1298
1777572505341,1299
1777572505343,1306
1777572505345,1316
1777572505347,1325
1777572505349,1338
1777572505331,1350
1777572505333,1353
1777572505335,1354
1777572505337,1334
1777572505339,1353
1777572505341,1353
1777572505343,1355
1777572505345,1358
1777572505347,1368
1777572505349,1371
1777572505331,1384
1777572505333,1389
1777572505335,1391
1777572505337,1395
1777572505339,1397
1777572505341,1402
1777572505343,1403
1777572505345,1414
1777572505347,1431
1777572505349,1451
1777572505375,1466
1777572505377,1469
1777572505379,1468
1777572505381,1466
1777572505383,1449
1777572505385,1450
1777572505387,1429
1777572505389,1481
1777572505391,1491
1777572505393,1500
1777572505375,1511
1777572505377,1509
1777572505379,1504
1777572505381,1499
1777572505383,1493
1777572505385,1494
1777572505387,1498
1777572505389,1508
1777572505391,1520
1777572505393,1527
1777572505424,1528
1777572505426,1528
1777572505428,1538
1777572505430,1540
1777572505432,1532
1777572505434,1543
1777572505436,1551
1777572505438,1561
1777572505440,1559
1777572505442,1600
1777572505424,1615
1777572505426,1629
1777572505428,1637
1777572505430,1642
1777572505432,1641
1777572505434,1644
1777572505436,1657
1777572505438,1669
1777572505440,1675
1777572505442,1682
1777572505465,1693
1777572505467,1698
1777572505469,1699
1777572505471,1692
1777572505473,1687
1777572505475,1689
1777572505477,1691
1777572505479,1700
1777572505481,1704
1777572505483,1696
1777572505465,1701
1777572505467,1696
1777572505469,1735
1777572505471,1737
1777572505473,1732
1777572505475,1730
1777572505477,1731
1777572505479,1736
1777572505481,1739
1777572505483,1742
1777572505520,1749
1777572505522,1755
1777572505524,1752
1777572505526,1754
1777572505528,1751
1777572505530,1758
1777572505532,1770
1777572505534,1781
1777572505536,1786
1777572505538,1791
1777572505520,1803
1777572505522,1814
1777572505524,1825
1777572505526,1816
1777572505528,1846
1777572505530,1862
1777572505532,1871
1777572505534,1882
1777572505536,1896
1777572505538,1910
1777572505520,1925
1777572505522,1933
1777572505524,1940
1777572505526,1933
1777572505528,1925
1777572505530,1928
1777572505532,1931
1777572505534,1941
1777572505536,1948
1777572505538,1949
1777572505555,1959
1777572505557,1965
1777572505559,1971
1777572505561,1967
1777572505563,1952
1777572505565,1952
1777572505567,1931
1777572505569,1979
1777572505571,1983
1777572505573,1991
1777572505555,1987
1777572505557,1991
1777572505559,1993
1777572505561,1994
1777572505563,1987
1777572505565,1979
1777572505567,1976
1777572505569,1980
1777572505571,1983
1777572505573,1988
1777572505600,1992
1777572505602,1991
1777572505604,1989
1777572505606,1976
1777572505608,1979
1777572505610,1984
1777572505612,1986
1777572505614,1991
1777572505616,1979
1777572505618,2007
1777572505600,2021
1777572505602,2025
1777572505604,2029
1777572505606,2029
1777572505608,2025
1777572505610,2022
1777572505612,2015
1777572505614,2022
1777572505616,2024
1777572505618,2028
1777572505647,2039
1777572505649,2044
1777572505651,2045
1777572505653,2044
1777572505655,2035
1777572505657,2038
1777572505659,2045
1777572505661,2059
1777572505663,2070
1777572505665,2068
1777572505647,2076
1777572505649,2070
1777572505651,2108
1777572505653,2121
1777572505655,2131
1777572505657,2135
1777572505659,2143
1777572505661,2148
1777572505663,2150
1777572505665,2153
1777572505690,2160
1777572505692,2170
1777572505694,2182
1777572505696,2186
1777572505698,2179
1777572505700,2179
1777572505702,2180
1777572505704,2183
1777572505706,2185
1777572505708,2188
1777572505690,2194
1777572505692,2196
1777572505694,2194
1777572505696,2173
1777572505698,2188
1777572505700,2200
1777572505702,2206
1777572505704,2214
1777572505706,2223
1777572505708,2231
1777572505690,2231
1777572505692,2229
1777572505694,2227
1777572505696,2220
1777572505698,2215
1777572505700,2215
1777572505702,2208
1777572505704,2206
1777572505706,2206
1777572505708,2211
1777572505744,2215
1777572505746,2218
1777572505748,2215
1777572505750,2201
1777572505752,2179
1777572505754,2177
1777572505756,2160
1777572505758,2205
1777572505760,2211
1777572505762,2208
1777572505744,2206
1777572505746,2206
1777572505748,2203
1777572505750,2199
1777572505752,2192
1777572505754,2190
1777572505756,2184
1777572505758,2185
1777572505760,2188
1777572505762,2195
1777572505780,2203
1777572505782,2215
1777572505784,2217
1777572505786,2214
1777572505788,2209
1777572505790,2208
1777572505792,2204
1777572505794,2211
1777572505796,2204
1777572505798,2231
1777572505780,2248
1777572505782,2250
1777572505784,2253
1777572505786,2261
1777572505788,2263
1777572505790,2265
1777572505792,2264
1777572505794,2275
1777572505796,2285
1777572505798,2295
1777572505825,2304
1777572505827,2315
1777572505829,2325
1777572505831,2339
1777572505833,2342
1777572505835,2349
1777572505837,2367
1777572505839,2389
1777572505841,2414
1777572505843,2435
1777572505825,2468
1777572505827,2492
1777572505829,2566
1777572505831,2623
1777572505833,2683
1777572505835,2764
1777572505837,2862
1777572505839,2957
1777572505841,3042
1777572505843,3106
1777572505871,3152
1777572505873,3158
1777572505875,3142
1777572505877,3108
1777572505879,3061
1777572505881,3012
1777572505883,2950
1777572505885,2878
1777572505887,2809
1777572505889,2734
1777572505871,2658
1777572505873,2575
1777572505875,2498
1777572505877,2415
1777572505879,2380
1777572505881,2361
1777572505883,2348
1777572505885,2344
1777572505887,2345
1777572505889,2350
1777572505871,2356
1777572505873,2363
1777572505875,2369
1777572505877,2380
1777572505879,2394
1777572505881,2411
1777572505883,2421
1777572505885,2435
1777572505887,2449
1777572505889,2464
1777572505915,2481
1777572505917,2494
1777572505919,2498
1777572505921,2487
1777572505923,2482
1777572505925,2487
1777572505927,2471
1777572505929,2516
1777572505931,2531
1777572505933,2543
1777572505915,2556
1777572505917,2563
1777572505919,2562
1777572505921,2557
1777572505923,2553
1777572505925,2554
1777572505927,2552
1777572505929,2559
1777572505931,2570
1777572505933,2578
1777572505968,2593
1777572505970,2604
1777572505972,2610
1777572505974,2616
1777572505976,2618
1777572505978,2619
1777572505980,2620
1777572505982,2627
1777572505984,2624
1777572505986,2657
1777572505968,2681
1777572505970,2696
1777572505972,2700
1777572505974,2699
1777572505976,2703
1777572505978,2696
1777572505980,2706
1777572505982,2714
1777572505984,2717
1777572505986,2726
1777572506005,2739
1777572506007,2752
1777572506009,2767
1777572506011,2776
1777572506013,2776
1777572506015,2779
1777572506017,2780
1777572506019,2789
1777572506021,2805
1777572506023,2813
1777572506005,2828
1777572506007,2832
1777572506009,2870
1777572506011,2877
1777572506013,2880
1777572506015,2893
1777572506017,2907
1777572506019,2918
1777572506021,2930
1777572506023,2945
1777572506005,2961
1777572506007,2974
1777572506009,2989
1777572506011,3001
1777572506013,3029
1777572506015,3010
1777572506017,3019
1777572506019,3034
1777572506021,3050
1777572506023,3066
1777572506050,3071
1777572506052,3076
1777572506054,3083
1777572506056,3070
1777572506058,3084
1777572506060,3104
1777572506062,3102
1777572506064,3100
1777572506066,3102
1777572506068,3105
1777572506050,3105
1777572506052,3113
1777572506054,3115
1777572506056,3112
1777572506058,3101
1777572506060,3088
1777572506062,3088
1777572506064,3097
1777572506066,3099
1777572506068,3091
1777572506096,3082
1777572506098,3070
1777572506100,3067
1777572506102,3054
1777572506104,3038
1777572506106,3023
1777572506108,2994
1777572506110,3005
1777572506112,2994
1777572506114,2985
1777572506096,2976
1777572506098,2969
1777572506100,2951
1777572506102,2930
1777572506104,2908
1777572506106,2889
1777572506108,2873
1777572506110,2865
1777572506112,2856
1777572506114,2849
1777572506140,2846
1777572506142,2843
1777572506144,2831
1777572506146,2822
1777572506148,2809
1777572506150,2805
1777572506152,2797
1777572506154,2791
1777572506156,2771
1777572506158,2791
1777572506140,2803
1777572506142,2818
1777572506144,2829
1777572506146,2829
1777572506148,2823
1777572506150,2816
1777572506152,2812
1777572506154,2810
1777572506156,2812
1777572506158,2814
1777572506192,2823
1777572506194,2823
1777572506196,2828
1777572506198,2826
1777572506200,2824
1777572506202,2831
1777572506204,2842
1777572506206,2844
1777572506208,2851
1777572506210,2858
1777572506192,2868
1777572506194,2863
1777572506196,2892
1777572506198,2891
1777572506200,2882
1777572506202,2883
1777572506204,2885
1777572506206,2888
1777572506208,2895
1777572506210,2902
1777572506192,2911
1777572506194,2920
1777572506196,2929
1777572506198,2933
1777572506200,2932
1777572506202,2928
1777572506204,2924
1777572506206,2927
1777572506208,2936
1777572506210,2943
1777572506230,2954
1777572506232,2956
1777572506234,2955
1777572506236,2937
1777572506238,2949
1777572506240,2965
1777572506242,2967
1777572506244,2970
1777572506246,2973
1777572506248,2980
1777572506230,2992
1777572506232,3001
1777572506234,2998
1777572506236,2994
1777572506238,2991
1777572506240,2991
1777572506242,2988
1777572506244,3001
1777572506246,3007
1777572506248,3017
1777572506275,3021
1777572506277,3032
1777572506279,3042
1777572506281,3048
1777572506283,3047
1777572506285,3048
1777572506287,3039
1777572506289,3068
1777572506291,3080
1777572506293,3093
1777572506275,3109
1777572506277,3115
1777572506279,3118
1777572506281,3112
1777572506283,3096
1777572506285,3081
1777572506287,3086
1777572506289,3092
1777572506291,3102
1777572506293,3109
1777572506320,3116
1777572506322,3123
1777572506324,3130
1777572506326,3130
1777572506328,3119
1777572506330,3114
1777572506332,3112
1777572506334,3113
1777572506336,3109
1777572506338,3141
1777572506320,3149
1777572506322,3148
1777572506324,3147
1777572506326,3143
1777572506328,3128
1777572506330,3124
1777572506332,3123
1777572506334,3128
1777572506336,3134
1777572506338,3138
1777572506365,3154
1777572506367,3167
1777572506369,3177
1777572506371,3178
1777572506373,3171
1777572506375,3167
1777572506377,3166
1777572506379,3164
1777572506381,3161
1777572506383,3148
1777572506365,3150
1777572506367,3143
1777572506369,3177
1777572506371,3180
1777572506373,3183
1777572506375,3187
1777572506377,3184
1777572506379,3185
1777572506381,3191
1777572506383,3197
1777572506365,3200
1777572506367,3213
1777572506369,3212
1777572506371,3208
1777572506373,3195
1777572506375,3184
1777572506377,3177
1777572506379,3175
1777572506381,3175
1777572506383,3177
1777572506415,3179
1777572506417,3179
1777572506419,3180
1777572506421,3166
1777572506423,3176
1777572506425,3189
1777572506427,3186
1777572506429,3182
1777572506431,3181
1777572506433,3183
1777572506416,3184
1777572506418,3190
1777572506420,3196
1777572506422,3206
1777572506424,3201
1777572506426,3194
1777572506428,3186
1777572506430,3192
1777572506432,3202
1777572506434,3210
1777572506455,3218
1777572506457,3224
1777572506459,3220
1777572506461,3220
1777572506463,3213
1777572506465,3211
1777572506467,3205
1777572506469,3246
1777572506471,3261
1777572506473,3276
1777572506455,3287
1777572506457,3290
1777572506459,3293
1777572506461,3290
1777572506463,3281
1777572506465,3271
1777572506467,3271
1777572506469,3267
1777572506471,3267
1777572506473,3272
1777572506500,3280
1777572506502,3283
1777572506504,3289
1777572506506,3286
1777572506508,3276
1777572506510,3275
1777572506512,3274
1777572506514,3274
1777572506516,3259
1777572506518,3291
1777572506500,3299
1777572506502,3302
1777572506504,3299
1777572506506,3290
1777572506508,3278
1777572506510,3283
1777572506512,3289
1777572506514,3296
1777572506516,3292
1777572506518,3290
1777572506545,3288
1777572506547,3291
1777572506549,3292
1777572506551,3294
1777572506553,3289
1777572506555,3289
1777572506557,3284
1777572506559,3285
1777572506561,3290
1777572506563,3287
1777572506545,3305
1777572506547,3295
1777572506549,3327
1777572506551,3323
1777572506553,3312
1777572506555,3297
1777572506557,3288
1777572506559,3282
1777572506561,3283
1777572506563,3293
1777572506546,3304
1777572506548,3311
1777572506550,3311
1777572506552,3306
1777572506554,3295
1777572506556,3291
1777572506558,3287
1777572506560,3294
1777572506562,3302
1777572506564,3307
1777572506590,3312
1777572506592,3311
1777572506594,3311
1777572506596,3295
1777572506598,3307
1777572506600,3318
1777572506602,3322
1777572506604,3323
1777572506606,3324
1777572506608,3327
1777572506590,3326
1777572506592,3324
1777572506594,3318
1777572506596,3308
1777572506598,3299
1777572506600,3288
1777572506602,3291
1777572506604,3290
1777572506606,3293
1777572506608,3301
1777572506639,3310
1777572506641,3323
1777572506643,3321
1777572506645,3316
1777572506647,3301
1777572506649,3300
1777572506651,3290
1777572506653,3328
1777572506655,3340
1777572506657,3340
1777572506639,3336
1777572506641,3336
1777572506643,3337
1777572506645,3337
1777572506647,3331
1777572506649,3325
1777572506651,3331
1777572506653,3343
1777572506655,3355
1777572506657,3367
1777572506680,3374
1777572506682,3387
1777572506684,3411
1777572506686,3424
1777572506688,3436
1777572506690,3444
1777572506692,3445
1777572506694,3446
1777572506696,3435
1777572506698,3467
1777572506680,3494
1777572506682,3505
1777572506684,3518
1777572506686,3528
1777572506688,3527
1777572506690,3527
1777572506692,3524
1777572506694,3521
1777572506696,3518
1777572506698,3514
1777572506725,3513
1777572506727,3515
1777572506729,3513
1777572506731,3513
1777572506733,3511
1777572506735,3511
1777572506737,3517
1777572506739,3518
1777572506741,3516
1777572506743,3506
1777572506725,3504
1777572506727,3496
1777572506729,3522
1777572506731,3523
1777572506733,3517
1777572506735,3499
1777572506737,3482
1777572506739,3468
1777572506741,3452
1777572506743,3436
1777572506726,3425
1777572506728,3422
1777572506730,3428
1777572506732,3431
1777572506734,3427
1777572506736,3415
1777572506738,3403
1777572506740,3399
1777572506742,3392
1777572506744,3392
1777572506770,3393
1777572506772,3389
1777572506774,3386
1777572506776,3367
1777572506778,3372
1777572506780,3381
1777572506782,3371
1777572506784,3364
1777572506786,3357
1777572506788,3354
1777572506770,3350
1777572506772,3347
1777572506774,3344
1777572506776,3339
1777572506778,3329
1777572506780,3315
1777572506782,3309
1777572506784,3308
1777572506786,3315
1777572506788,3323
1777572506815,3329
1777572506817,3327
1777572506819,3326
1777572506821,3323
1777572506823,3316
1777572506825,3310
1777572506827,3294
1777572506829,3322
1777572506831,3322
1777572506833,3331
1777572506815,3337
1777572506817,3333
1777572506819,3325
1777572506821,3322
1777572506823,3304
1777572506825,3291
1777572506827,3278
1777572506829,3275
1777572506831,3284
1777572506833,3302
1777572506864,3329
1777572506866,3367
1777572506868,3403
1777572506870,3448
1777572506872,3501
1777572506874,3575
1777572506876,3664
1777572506878,3766
1777572506880,3868
1777572506882,4008
1777572506864,4091
1777572506866,4095
1777572506868,4095
1777572506870,4095
1777572506872,4094
1777572506874,4040
1777572506876,3940
1777572506878,3823
1777572506880,3700
1777572506882,3585
1777572506908,3475
1777572506910,3369
1777572506912,3265
1777572506914,3169
1777572506916,3073
1777572506918,3003
1777572506920,2951
1777572506922,2929
1777572506924,2930
1777572506926,2934
1777572506908,2933
1777572506910,2929
1777572506912,2977
1777572506914,3002
1777572506916,3016
1777572506918,3027
1777572506920,3043
1777572506922,3055
1777572506924,3064
1777572506926,3064
1777572506908,3064
1777572506910,3067
1777572506912,3068
1777572506914,3068
1777572506916,3066
1777572506918,3059
1777572506920,3053
1777572506922,3049
1777572506924,3048
1777572506926,3043
1777572506960,3042
1777572506962,3040
1777572506964,3051
1777572506966,3038
1777572506968,3042
1777572506970,3051
1777572506972,3042
1777572506974,3034
1777572506976,3033
1777572506978,3030
1777572506960,3027
1777572506962,3029
1777572506964,3031
1777572506966,3029
1777572506968,3018
1777572506970,3017
1777572506972,3017
1777572506974,3017
1777572506976,3017
1777572506978,3018
1777572506995,3015
1777572506997,3015
1777572506999,3024
1777572507001,3032
1777572507003,3029
1777572507005,3035
1777572507007,3028
1777572507009,3062
1777572507011,3065
1777572507013,3061
1777572506995,3053
1777572506997,3049
1777572506999,3051
1777572507001,3048
1777572507003,3047
1777572507005,3048
1777572507007,3048
1777572507009,3050
1777572507011,3057
1777572507013,3065
1777572507041,3063
1777572507043,3067
1777572507045,3073
1777572507047,3085
1777572507049,3095
1777572507051,3098
1777572507053,3091
1777572507055,3087
1777572507057,3076
1777572507059,3103
1777572507041,3123
1777572507043,3137
1777572507045,3147
1777572507047,3157
1777572507049,3160
1777572507051,3163
1777572507053,3163
1777572507055,3170
1777572507057,3183
1777572507059,3196
1777572507087,3206
1777572507089,3210
1777572507091,3210
1777572507093,3217
1777572507095,3226
1777572507097,3228
1777572507099,3223
1777572507101,3227
1777572507103,3229
1777572507105,3226
1777572507087,3231
1777572507089,3226
1777572507091,3248
1777572507093,3250
1777572507095,3243
1777572507097,3235
1777572507099,3226
1777572507101,3215
1777572507103,3202
1777572507105,3191
1777572507087,3185
1777572507089,3181
1777572507091,3170
1777572507093,3154
1777572507095,3132
1777572507097,3106
1777572507099,3079
1777572507101,3050
1777572507103,3023
1777572507105,2994
1777572507130,2973
1777572507132,2951
1777572507134,2939
1777572507136,2906
1777572507138,2894
1777572507140,2894
1777572507142,2870
1777572507144,2837
1777572507146,2804
1777572507148,2774
1777572507131,2755
1777572507133,2739
1777572507135,2723
1777572507137,2706
1777572507139,2681
1777572507141,2675
1777572507143,2665
1777572507145,2659
1777572507147,2655
1777572507149,2654
1777572507184,2651
1777572507186,2652
1777572507188,2652
1777572507190,2652
1777572507192,2639
1777572507194,2634
1777572507196,2616
1777572507198,2638
1777572507200,2644
1777572507202,2647
1777572507184,2648
1777572507186,2649
1777572507188,2654
1777572507190,2658
1777572507192,2661
1777572507194,2660
1777572507196,2654
1777572507198,2651
1777572507200,2653
1777572507202,2660
1777572507221,2661
1777572507223,2653
1777572507225,2657
1777572507227,2665
1777572507229,2664
1777572507231,2657
1777572507233,2644
1777572507235,2639
1777572507237,2628
1777572507239,2656
1777572507221,2665
1777572507223,2666
1777572507225,2665
1777572507227,2668
1777572507229,2659
1777572507231,2644
1777572507233,2634
1777572507235,2632
1777572507237,2634
1777572507239,2634
1777572507265,2645
1777572507267,2650
1777572507269,2659
1777572507271,2665
1777572507273,2664
1777572507275,2655
1777572507277,2656
1777572507279,2655
1777572507281,2660
1777572507283,2662
1777572507265,2669
1777572507267,2662
1777572507269,2693
1777572507271,2696
1777572507273,2687
1777572507275,2680
1777572507277,2673
1777572507279,2675
1777572507281,2675
1777572507283,2679
1777572507265,2683
1777572507267,2688
1777572507269,2693
1777572507271,2697
1777572507273,2689
1777572507275,2683
1777572507277,2676
1777572507279,2667
1777572507281,2669
1777572507283,2673
1777572507312,2672
1777572507314,2665
1777572507316,2671
1777572507318,2667
1777572507320,2686
1777572507322,2705
1777572507324,2700
1777572507326,2694
1777572507328,2687
1777572507330,2683
1777572507312,2680
1777572507314,2679
1777572507316,2678
1777572507318,2668
1777572507320,2662
1777572507322,2654
1777572507324,2645
1777572507326,2645
1777572507328,2651
1777572507330,2656
1777572507355,2657
1777572507357,2667
1777572507359,2670
1777572507361,2674
1777572507363,2665
1777572507365,2661
1777572507367,2642
1777572507369,2665
1777572507371,2667
1777572507373,2671
1777572507355,2679
1777572507357,2683
1777572507359,2681
1777572507361,2675
1777572507363,2670
1777572507365,2663
1777572507367,2651
1777572507369,2643
1777572507371,2641
1777572507373,2646
1777572507408,2651
1777572507410,2653
1777572507412,2661
1777572507414,2670
1777572507416,2669
1777572507418,2659
1777572507420,2634
1777572507422,2631
1777572507424,2615
1777572507426,2643
1777572507408,2652
1777572507410,2656
1777572507412,2652
1777572507414,2664
1777572507416,2659
1777572507418,2656
1777572507420,2650
1777572507422,2643
1777572507424,2638
1777572507426,2641
1777572507408,2646
1777572507410,2649
1777572507412,2652
1777572507414,2654
1777572507416,2648
1777572507418,2636
1777572507420,2632
1777572507422,2624
1777572507424,2618
1777572507426,2607
1777572507446,2605
1777572507448,2585
1777572507450,2630
1777572507452,2633
1777572507454,2626
1777572507456,2617
1777572507458,2602
1777572507460,2589
1777572507462,2584
1777572507464,2579
1777572507446,2578
1777572507448,2579
1777572507450,2580
1777572507452,2581
1777572507454,2572
1777572507456,2567
1777572507458,2559
1777572507460,2555
1777572507462,2555
1777572507464,2559
1777572507504,2565
1777572507506,2571
1777572507508,2583
1777572507510,2574
1777572507512,2601
1777572507514,2599
1777572507516,2594
1777572507518,2588
1777572507520,2585
1777572507522,2584
1777572507504,2588
1777572507506,2592
1777572507508,2597
1777572507510,2597
1777572507512,2606
1777572507514,2613
1777572507516,2607
1777572507518,2601
1777572507520,2597
1777572507522,2595
1777572507536,2592
1777572507538,2589
1777572507540,2590
1777572507542,2595
1777572507544,2583
1777572507546,2580
1777572507548,2555
1777572507550,2577
1777572507552,2571
1777572507554,2566
1777572507536,2570
1777572507538,2575
1777572507540,2574
1777572507542,2582
1777572507544,2586
1777572507546,2587
1777572507548,2585
1777572507550,2580
1777572507552,2576
1777572507554,2574
1777572507580,2574
1777572507582,2573
1777572507584,2573
1777572507586,2577
1777572507588,2571
1777572507590,2566
1777572507592,2559
1777572507594,2555
1777572507596,2538
1777572507598,2566
1777572507581,2586
1777572507583,2594
1777572507585,2593
1777572507587,2589
1777572507589,2583
1777572507591,2578
1777572507593,2575
1777572507595,2581
1777572507597,2585
1777572507599,2579
1777572507581,2574
1777572507583,2575
1777572507585,2577
1777572507587,2579
1777572507589,2571
1777572507591,2563
1777572507593,2551
1777572507595,2546
1777572507597,2547
1777572507599,2541
1777572507632,2547
1777572507634,2530
1777572507636,2569
1777572507638,2571
1777572507640,2565
1777572507642,2564
1777572507644,2557
1777572507646,2553
1777572507648,2548
1777572507650,2544
1777572507632,2546
1777572507634,2543
1777572507636,2540
1777572507638,2538
1777572507640,2534
1777572507642,2542
1777572507644,2538
1777572507646,2534
1777572507648,2531
1777572507650,2536
1777572507670,2535
1777572507672,2544
1777572507674,2553
1777572507676,2541
1777572507678,2566
1777572507680,2580
1777572507682,2581
1777572507684,2576
1777572507686,2574
1777572507688,2571
1777572507670,2569
1777572507672,2569
1777572507674,2569
1777572507676,2565
1777572507678,2558
1777572507680,2548
1777572507682,2540
1777572507684,2539
1777572507686,2541
1777572507688,2549
1777572507715,2557
1777572507717,2566
1777572507719,2575
1777572507721,2584
1777572507723,2584
1777572507725,2565
1777572507727,2542
1777572507729,2560
1777572507731,2556
1777572507733,2552
1777572507715,2548
1777572507717,2546
1777572507719,2546
1777572507721,2555
1777572507723,2556
1777572507725,2557
1777572507727,2554
1777572507729,2552
1777572507731,2551
1777572507733,2547
1777572507761,2549
1777572507763,2553
1777572507765,2558
1777572507767,2565
1777572507769,2568
1777572507771,2556
1777572507773,2550
1777572507775,2539
1777572507777,2517
1777572507779,2540
1777572507761,2553
1777572507763,2558
1777572507765,2569
1777572507767,2570
1777572507769,2568
1777572507771,2562
1777572507773,2549
1777572507775,2544
1777572507777,2545
1777572507779,2549
1777572507761,2553
1777572507763,2557
1777572507765,2565
1777572507767,2567
1777572507769,2555
1777572507771,2557
1777572507773,2547
1777572507775,2541
1777572507777,2539
1777572507779,2533
1777572507856,2534
1777572507858,2514
1777572507860,2562
1777572507862,2570
1777572507864,2565
1777572507866,2556
1777572507868,2540
1777572507870,2533
1777572507872,2529
1777572507874,2530
1777572507856,2532
1777572507858,2527
1777572507860,2528
1777572507862,2524
1777572507864,2523
1777572507866,2519
1777572507868,2512
1777572507870,2503
1777572507872,2492
1777572507874,2489
1777572507856,2491
1777572507858,2497
1777572507860,2499
1777572507862,2486
1777572507864,2516
1777572507866,2523
1777572507868,2520
1777572507870,2522
1777572507872,2520
1777572507874,2510
1777572507856,2506
1777572507858,2504
1777572507860,2501
1777572507862,2504
1777572507864,2499
1777572507866,2492
1777572507868,2474
1777572507870,2462
1777572507872,2463
1777572507874,2470
1777572507908,2474
1777572507910,2475
1777572507912,2474
1777572507914,2470
1777572507916,2460
1777572507918,2456
1777572507920,2421
1777572507922,2458
1777572507924,2458
1777572507926,2447
1777572507908,2443
1777572507910,2439
1777572507912,2438
1777572507914,2441
1777572507916,2441
1777572507918,2441
1777572507920,2436
1777572507922,2428
1777572507924,2426
1777572507926,2426
1777572507941,2428
1777572507943,2429
1777572507945,2430
1777572507947,2432
1777572507949,2428
1777572507951,2424
1777572507953,2428
1777572507955,2434
1777572507957,2422
1777572507959,2445
1777572507941,2461
1777572507943,2461
1777572507945,2470
1777572507947,2481
1777572507949,2490
1777572507951,2492
1777572507953,2488
1777572507955,2478
1777572507957,2474
1777572507959,2471
1777572507941,2473
1777572507943,2482
1777572507945,2498
1777572507947,2514
1777572507949,2532
1777572507951,2550
1777572507953,2567
1777572507955,2592
1777572507957,2625
1777572507959,2659
1777572507991,2713
1777572507993,2761
1777572507995,2892
1777572507997,2989
1777572507999,3081
1777572508001,3166
1777572508003,3236
1777572508005,3287
1777572508007,3313
1777572508009,3310
1777572508030,3287
1777572508032,3241
1777572508034,3178
1777572508036,3097
1777572508038,3006
1777572508040,2910
1777572508042,2810
1777572508044,2708
1777572508046,2606
1777572508048,2513
1777572508030,2438
1777572508032,2376
1777572508034,2341
1777572508036,2313
1777572508038,2331
1777572508040,2331
1777572508042,2334
1777572508044,2345
1777572508046,2358
1777572508048,2366
1777572508030,2387
1777572508032,2400
1777572508034,2410
1777572508036,2426
1777572508038,2436
1777572508040,2448
1777572508042,2450
1777572508044,2448
1777572508046,2450
1777572508048,2457
1777572508080,2467
1777572508082,2480
1777572508084,2490
1777572508086,2494
1777572508088,2485
1777572508090,2480
1777572508092,2449
1777572508094,2487
1777572508096,2486
1777572508098,2489
1777572508080,2488
1777572508082,2479
1777572508084,2477
1777572508086,2474
1777572508088,2472
1777572508090,2471
1777572508092,2466
1777572508094,2462
1777572508096,2459
1777572508098,2458
1777572508120,2461
1777572508122,2468
1777572508124,2472
1777572508126,2476
1777572508128,2471
1777572508130,2473
1777572508132,2474
1777572508134,2475
1777572508136,2461
1777572508138,2494
1777572508120,2508
1777572508122,2528
1777572508124,2541
1777572508126,2553
1777572508128,2558
1777572508130,2562
1777572508132,2556
1777572508134,2548
1777572508136,2545
1777572508138,2546
1777572508165,2555
1777572508167,2562
1777572508169,2573
1777572508171,2580
1777572508173,2588
1777572508175,2585
1777572508177,2586
1777572508179,2588
1777572508181,2594
1777572508183,2591
1777572508165,2596
1777572508167,2585
1777572508169,2622
1777572508171,2632
1777572508173,2643
1777572508175,2650
1777572508177,2643
1777572508179,2648
1777572508181,2650
1777572508183,2653
1777572508211,2661
1777572508213,2676
1777572508215,2692
1777572508217,2716
1777572508219,2725
1777572508221,2732
1777572508223,2731
1777572508225,2729
1777572508227,2728
1777572508229,2735
1777572508211,2745
1777572508213,2751
1777572508215,2757
1777572508217,2748
1777572508219,2771
1777572508221,2777
1777572508223,2779
1777572508225,2772
1777572508227,2758
1777572508229,2747
1777572508211,2738
1777572508213,2739
1777572508215,2744
1777572508217,2746
1777572508219,2745
1777572508221,2746
1777572508223,2731
1777572508225,2707
1777572508227,2680
1777572508229,2655
1777572508258,2643
1777572508260,2627
1777572508262,2611
1777572508264,2597
1777572508266,2575
1777572508268,2558
1777572508270,2509
1777572508272,2522
1777572508274,2502
1777572508276,2482
1777572508258,2461
1777572508260,2434
1777572508262,2416
1777572508264,2399
1777572508266,2385
1777572508268,2370
1777572508270,2343
1777572508272,2316
1777572508274,2295
1777572508276,2276
1777572508308,2265
1777572508310,2259
1777572508312,2253
1777572508314,2249
1777572508316,2235
1777572508318,2228
1777572508320,2218
1777572508322,2215
1777572508324,2202
1777572508326,2230
1777572508308,2239
1777572508310,2250
1777572508312,2251
1777572508314,2250
1777572508316,2241
1777572508318,2236
1777572508320,2228
1777572508322,2219
1777572508324,2213
1777572508326,2210
1777572508358,2212
1777572508360,2217
1777572508362,2217
1777572508364,2217
1777572508366,2241
1777572508368,2225
1777572508370,2215
1777572508372,2204
1777572508374,2196
1777572508376,2179
1777572508358,2184
1777572508360,2163
1777572508362,2187
1777572508364,2190
1777572508366,2190
1777572508368,2186
1777572508370,2179
1777572508372,2168
1777572508374,2159
1777572508376,2154
1777572508391,2160
1777572508393,2168
1777572508395,2169
1777572508397,2179
1777572508399,2179
1777572508401,2181
1777572508403,2175
1777572508405,2170
1777572508407,2169
1777572508409,2171
1777572508391,2175
1777572508393,2176
1777572508395,2173
1777572508397,2158
1777572508399,2173
1777572508401,2175
1777572508403,2175
1777572508405,2172
1777572508407,2170
1777572508409,2166
1777572508391,2165
1777572508393,2162
1777572508395,2166
1777572508397,2166
1777572508399,2163
1777572508401,2165
1777572508403,2160
1777572508405,2155
1777572508407,2155
1777572508409,2155
1777572508441,2158
1777572508443,2165
1777572508445,2169
1777572508447,2168
1777572508449,2157
1777572508451,2154
1777572508453,2125
1777572508455,2156
1777572508457,2151
1777572508459,2139
1777572508441,2127
1777572508443,2128
1777572508445,2138
1777572508447,2145
1777572508449,2150
1777572508451,2152
1777572508453,2146
1777572508455,2137
1777572508457,2126
1777572508459,2122
1777572508481,2120
1777572508483,2122
1777572508485,2125
1777572508487,2126
1777572508489,2131
1777572508491,2123
1777572508493,2105
1777572508495,2089
1777572508497,2067
1777572508499,2085
1777572508481,2091
1777572508483,2094
1777572508485,2095
1777572508487,2091
1777572508489,2091
1777572508491,2095
1777572508493,2089
1777572508495,2087
1777572508497,2079
1777572508499,2074
1777572508530,2069
1777572508532,2065
1777572508534,2062
1777572508536,2068
1777572508538,2069
1777572508540,2075
1777572508542,2068
1777572508544,2059
1777572508546,2049
1777572508548,2041
1777572508530,2042
1777572508532,2033
1777572508534,2060
1777572508536,2062
1777572508538,2061
1777572508540,2049
1777572508542,2038
1777572508544,2022
1777572508546,2011
1777572508548,2003
1777572508574,2005
1777572508576,2004
1777572508578,2003
1777572508580,2012
1777572508582,2029
1777572508584,2016
1777572508586,2012
1777572508588,2010
1777572508590,2000
1777572508592,1992
1777572508574,1995
1777572508576,1996
1777572508578,1996
1777572508580,1982
1777572508582,1994
1777572508584,2008
1777572508586,2008
1777572508588,2009
1777572508590,2011
1777572508592,2013
1777572508574,2012
1777572508576,2006
1777572508578,1998
1777572508580,1995
1777572508582,1991
1777572508584,1991
1777572508586,1979
1777572508588,1964
1777572508590,1949
1777572508592,1943
1777572508625,1938
1777572508627,1941
1777572508629,1944
1777572508631,1945
1777572508633,1939
1777572508635,1937
1777572508637,1907
1777572508639,1940
1777572508641,1937
1777572508643,1934
1777572508625,1924
1777572508627,1919
1777572508629,1915
1777572508631,1915
1777572508633,1915
1777572508635,1920
1777572508637,1923
1777572508639,1920
1777572508641,1908
1777572508643,1890
1777572508674,1882
1777572508676,1881
1777572508678,1880
1777572508680,1883
1777572508682,1906
1777572508684,1904
1777572508686,1898
1777572508688,1880
1777572508690,1854
1777572508692,1868
1777572508674,1881
1777572508676,1889
1777572508678,1892
1777572508680,1895
1777572508682,1892
1777572508684,1878
1777572508686,1861
1777572508688,1850
1777572508690,1840
1777572508692,1836
1777572508708,1836
1777572508710,1837
1777572508712,1838
1777572508714,1848
1777572508716,1847
1777572508718,1849
1777572508720,1843
1777572508722,1836
1777572508724,1831
1777572508726,1821
1777572508708,1823
1777572508710,1815
1777572508712,1845
1777572508714,1849
1777572508716,1852
1777572508718,1856
1777572508720,1863
1777572508722,1858
1777572508724,1852
1777572508726,1850
1777572508758,1850
1777572508760,1848
1777572508762,1852
1777572508764,1850
1777572508766,1851
1777572508768,1865
1777572508770,1869
1777572508772,1865
1777572508774,1855
1777572508776,1846
1777572508758,1841
1777572508760,1841
1777572508762,1838
1777572508764,1828
1777572508766,1853
1777572508768,1870
1777572508770,1873
1777572508772,1869
1777572508774,1864
1777572508776,1852
1777572508758,1841
1777572508760,1841
1777572508762,1837
1777572508764,1840
1777572508766,1844
1777572508768,1848
1777572508770,1845
1777572508772,1838
1777572508774,1831
1777572508776,1828
1777572508795,1831
1777572508797,1837
1777572508799,1848
1777572508801,1846
1777572508803,1846
1777572508805,1851
1777572508807,1829
1777572508809,1868
1777572508811,1866
1777572508813,1857
1777572508795,1850
1777572508797,1846
1777572508799,1840
1777572508801,1840
1777572508803,1843
1777572508805,1848
1777572508807,1840
1777572508809,1836
1777572508811,1826
1777572508813,1820
1777572508850,1819
1777572508852,1820
1777572508854,1829
1777572508856,1844
1777572508858,1851
1777572508860,1865
1777572508862,1866
1777572508864,1857
1777572508866,1836
1777572508868,1857
1777572508850,1871
1777572508852,1877
1777572508854,1881
1777572508856,1891
1777572508858,1900
1777572508860,1904
1777572508862,1913
1777572508864,1915
1777572508866,1923
1777572508868,1930
1777572508885,1931
1777572508887,1931
1777572508889,1938
1777572508891,1943
1777572508893,1935
1777572508895,1933
1777572508897,1925
1777572508899,1908
1777572508901,1889
1777572508903,1877
1777572508886,1879
1777572508888,1871
1777572508890,1909
1777572508892,1917
1777572508894,1918
1777572508896,1932
1777572508898,1934
1777572508900,1927
1777572508902,1911
1777572508904,1899
1777572508886,1894
1777572508888,1891
1777572508890,1898
1777572508892,1900
1777572508894,1895
1777572508896,1897
1777572508898,1894
1777572508900,1885
1777572508902,1875
1777572508904,1863
1777572508930,1857
1777572508932,1853
1777572508934,1849
1777572508936,1829
1777572508938,1846
1777572508940,1854
1777572508942,1849
1777572508944,1835
1777572508946,1825
1777572508948,1815
1777572508931,1809
1777572508933,1808
1777572508935,1808
1777572508937,1814
1777572508939,1817
1777572508941,1819
1777572508943,1815
1777572508945,1805
1777572508947,1798
1777572508949,1801
1777572508977,1805
1777572508979,1814
1777572508981,1816
1777572508983,1815
1777572508985,1820
1777572508987,1832
1777572508989,1821
1777572508991,1853
1777572508993,1853
1777572508995,1851
1777572508977,1850
1777572508979,1851
1777572508981,1852
1777572508983,1855
1777572508985,1853
1777572508987,1853
1777572508989,1847
1777572508991,1852
1777572508993,1853
1777572508995,1863
1777572509020,1874
1777572509022,1890
1777572509024,1909
1777572509026,1941
1777572509028,1968
1777572509030,2002
1777572509032,2042
1777572509034,2089
1777572509036,2135
1777572509038,2236
1777572509020,2337
1777572509022,2438
1777572509024,2531
1777572509026,2604
1777572509028,2648
1777572509030,2660
1777572509032,2646
1777572509034,2617
1777572509036,2583
1777572509038,2537
1777572509073,2484
1777572509075,2412
1777572509077,2337
1777572509079,2256
1777572509081,2181
1777572509083,2112
1777572509085,2042
1777572509087,1975
1777572509089,1922
1777572509091,1875
1777572509073,1844
1777572509075,1808
1777572509077,1824
1777572509079,1817
1777572509081,1806
1777572509083,1806
1777572509085,1801
1777572509087,1797
1777572509089,1791
1777572509091,1796
1777572509073,1806
1777572509075,1829
1777572509077,1851
1777572509079,1870
1777572509081,1880
1777572509083,1883
1777572509085,1879
1777572509087,1868
1777572509089,1855
1777572509091,1841
1777572509124,1838
1777572509126,1843
1777572509128,1851
1777572509130,1839
1777572509132,1865
1777572509134,1893
1777572509136,1889
1777572509138,1882
1777572509140,1877
1777572509142,1870
1777572509124,1869
1777572509126,1874
1777572509128,1877
1777572509130,1882
1777572509132,1884
1777572509134,1890
1777572509136,1883
1777572509138,1883
1777572509140,1877
1777572509142,1874
1777572509155,1878
1777572509157,1882
1777572509159,1883
1777572509161,1885
1777572509163,1896
1777572509165,1903
1777572509167,1891
1777572509169,1924
1777572509171,1926
1777572509173,1928
1777572509155,1933
1777572509157,1941
1777572509159,1938
1777572509161,1937
1777572509163,1942
1777572509165,1944
1777572509167,1950
1777572509169,1950
1777572509171,1951
1777572509173,1950
1777572509201,1954
1777572509203,1957
1777572509205,1965
1777572509207,1976
1777572509209,1982
1777572509211,1992
1777572509213,1990
1777572509215,1984
1777572509217,1963
1777572509219,1989
1777572509201,2005
1777572509203,2014
1777572509205,2024
1777572509207,2033
1777572509209,2033
1777572509211,2045
1777572509213,2047
1777572509215,2049
1777572509217,2051
1777572509219,2058
1777572509245,2059
1777572509247,2063
1777572509249,2079
1777572509251,2098
1777572509253,2110
1777572509255,2123
1777572509257,2126
1777572509259,2126
1777572509261,2124
1777572509263,2107
1777572509246,2104
1777572509248,2089
1777572509250,2122
1777572509252,2123
1777572509254,2128
1777572509256,2143
1777572509258,2147
1777572509260,2136
1777572509262,2118
1777572509264,2097
1777572509246,2077
1777572509248,2074
1777572509250,2074
1777572509252,2070
1777572509254,2068
1777572509256,2070
1777572509258,2064
1777572509260,2047
1777572509262,2023
1777572509264,2001
1777572509297,1981
1777572509299,1956
1777572509301,1934
1777572509303,1906
1777572509305,1904
1777572509307,1917
1777572509309,1909
1777572509311,1889
1777572509313,1861
1777572509315,1831
1777572509297,1803
1777572509299,1780
1777572509301,1758
1777572509303,1742
1777572509305,1731
1777572509307,1720
1777572509309,1709
1777572509311,1701
1777572509313,1687
1777572509315,1672
1777572509343,1658
1777572509345,1649
1777572509347,1638
1777572509349,1633
1777572509351,1637
1777572509353,1652
1777572509355,1643
1777572509357,1673
1777572509359,1666
1777572509361,1665
1777572509343,1669
1777572509345,1671
1777572509347,1667
1777572509349,1660
1777572509351,1660
1777572509353,1660
1777572509355,1662
1777572509357,1659
1777572509359,1656
1777572509361,1649
1777572509380,1646
1777572509382,1645
1777572509384,1650
1777572509386,1656
1777572509388,1660
1777572509390,1666
1777572509392,1667
1777572509394,1664
1777572509396,1648
1777572509398,1667
1777572509380,1674
1777572509382,1674
1777572509384,1677
1777572509386,1682
1777572509388,1680
1777572509390,1688
1777572509392,1694
1777572509394,1696
1777572509396,1695
1777572509398,1692
1777572509425,1688
1777572509427,1693
1777572509429,1700
1777572509431,1706
1777572509433,1710
1777572509435,1722
1777572509437,1725
1777572509439,1734
1777572509441,1737
1777572509443,1729
1777572509470,1730
1777572509472,1716
1777572509474,1756
1777572509476,1763
1777572509478,1774
1777572509480,1783
1777572509482,1788
1777572509484,1793
1777572509486,1796
1777572509488,1793
1777572509470,1799
1777572509472,1803
1777572509474,1810
1777572509476,1816
1777572509478,1825
1777572509480,1838
1777572509482,1843
1777572509484,1855
1777572509486,1864
1777572509488,1867
1777572509471,1865
1777572509473,1860
1777572509475,1857
1777572509477,1848
1777572509479,1885
1777572509481,1908
1777572509483,1922
1777572509485,1930
1777572509487,1929
1777572509489,1920
1777572509472,1921
1777572509474,1934
1777572509476,1942
1777572509478,1955
1777572509480,1966
1777572509482,1970
1777572509484,1981
1777572509486,1988
1777572509488,1990
1777572509490,1990
1777572509522,1993
1777572509524,1994
1777572509526,1993
1777572509528,2002
1777572509530,2015
1777572509532,2033
1777572509534,2019
1777572509536,2076
1777572509538,2099
1777572509540,2105
1777572509522,2105
1777572509524,2099
1777572509526,2091
1777572509528,2089
1777572509530,2100
1777572509532,2103
1777572509534,2111
1777572509536,2116
1777572509538,2115
1777572509540,2112
1777572509606,2115
1777572509608,2125
1777572509610,2136
1777572509612,2144
1777572509614,2158
1777572509616,2171
1777572509618,2181
1777572509620,2186
1777572509622,2174
1777572509624,2193
1777572509606,2204
1777572509608,2214
1777572509610,2228
1777572509612,2239
1777572509614,2248
1777572509616,2265
1777572509618,2273
1777572509620,2275
1777572509622,2276
1777572509624,2277
1777572509606,2270
1777572509608,2279
1777572509610,2288
1777572509612,2303
1777572509614,2321
1777572509616,2338
1777572509618,2350
1777572509620,2351
1777572509622,2347
1777572509624,2344
1777572509650,2355
1777572509652,2369
1777572509654,2400
1777572509656,2416
1777572509658,2425
1777572509660,2429
1777572509662,2437
1777572509664,2444
1777572509666,2444
1777572509668,2441
1777572509650,2441
1777572509652,2451
1777572509654,2463
1777572509656,2478
1777572509658,2493
1777572509660,2506
1777572509662,2514
1777572509664,2521
1777572509666,2521
1777572509668,2519
1777572509650,2522
1777572509652,2522
1777572509654,2520
1777572509656,2517
1777572509658,2523
1777572509660,2583
1777572509662,2587
1777572509664,2576
1777572509666,2558
1777572509668,2545
1777572509652,2536
1777572509654,2535
1777572509656,2540
1777572509658,2553
1777572509660,2557
1777572509662,2566
1777572509664,2576
1777572509666,2582
1777572509668,2586
1777572509670,2584
1777572509695,2582
1777572509697,2584
1777572509699,2596
1777572509701,2609
1777572509703,2618
1777572509705,2631
1777572509707,2614
1777572509709,2667
1777572509711,2686
1777572509713,2696
1777572509695,2699
1777572509697,2695
1777572509699,2695
1777572509701,2699
1777572509703,2697
1777572509705,2712
1777572509707,2728
1777572509709,2736
1777572509711,2739
1777572509713,2736
1777572509745,2734
1777572509747,2737
1777572509749,2745
1777572509751,2760
1777572509753,2772
1777572509755,2787
1777572509757,2792
1777572509759,2791
1777572509761,2779
1777572509763,2803
1777572509745,2816
1777572509747,2819
1777572509749,2825
1777572509751,2828
1777572509753,2844
1777572509755,2859
1777572509757,2869
1777572509759,2874
1777572509761,2872
1777572509763,2867
1777572509785,2871
1777572509787,2875
1777572509789,2890
1777572509791,2909
1777572509793,2924
1777572509795,2943
1777572509797,2949
1777572509799,2962
1777572509801,2966
1777572509803,2965
1777572509785,2976
1777572509787,2983
1777572509789,3019
1777572509791,3035
1777572509793,3045
1777572509795,3053
1777572509797,3058
1777572509799,3064
1777572509801,3065
1777572509803,3069
1777572509785,3078
1777572509787,3086
1777572509789,3091
1777572509791,3098
1777572509793,3099
1777572509795,3092
1777572509797,3091
1777572509799,3083
1777572509801,3074
1777572509803,3066
1777572509876,3060
1777572509878,3048
1777572509880,3049
1777572509882,3040
1777572509884,3051
1777572509886,3067
1777572509888,3065
1777572509890,3057
1777572509892,3049
1777572509894,3033
1777572509876,3026
1777572509878,3019
1777572509880,3015
1777572509882,3016
1777572509884,3015
1777572509886,3024
1777572509888,3035
1777572509890,3043
1777572509892,3050
1777572509894,3051
1777572509876,3052
1777572509878,3049
1777572509880,3053
1777572509882,3060
1777572509884,3055
1777572509886,3065
1777572509888,3076
1777572509890,3089
1777572509892,3095
1777572509894,3102
1777572509877,3112
1777572509879,3121
1777572509881,3134
1777572509883,3143
1777572509885,3156
1777572509887,3169
1777572509889,3177
1777572509891,3180
1777572509893,3183
1777572509895,3177
1777572509924,3164
1777572509926,3164
1777572509928,3164
1777572509930,3170
1777572509932,3179
1777572509934,3194
1777572509936,3198
1777572509938,3199
1777572509940,3196
1777572509942,3186
1777572509924,3233
1777572509926,3246
1777572509928,3267
1777572509930,3298
1777572509932,3335
1777572509934,3359
1777572509936,3398
1777572509938,3449
1777572509940,3515
1777572509942,3591
1777572509974,3689
1777572509976,3796
1777572509978,3908
1777572509980,4018
1777572509982,4092
1777572509984,4095
1777572509986,4095
1777572509988,4095
1777572509990,4095
1777572509992,4057
1777572509974,3970
1777572509976,3852
1777572509978,3756
1777572509980,3652
1777572509982,3545
1777572509984,3457
1777572509986,3371
1777572509988,3289
1777572509990,3218
1777572509992,3163
1777572509974,3130
1777572509976,3114
1777572509978,3113
1777572509980,3120
1777572509982,3129
1777572509984,3139
1777572509986,3157
1777572509988,3179
1777572509990,3196
1777572509992,3207
1777572510065,3211
1777572510067,3213
1777572510069,3219
1777572510071,3217
1777572510073,3240
1777572510075,3271
1777572510077,3286
1777572510079,3292
1777572510081,3290
1777572510083,3288
1777572510065,3286
1777572510067,3287
1777572510069,3292
1777572510071,3302
1777572510073,3304
1777572510075,3316
1777572510077,3324
1777572510079,3332
1777572510081,3334
1777572510083,3330
1777572510065,3330
1777572510067,3336
1777572510069,3338
1777572510071,3347
1777572510073,3345
1777572510075,3359
1777572510077,3369
1777572510079,3396
1777572510081,3408
1777572510083,3412
1777572510065,3417
1777572510067,3416
1777572510069,3423
1777572510071,3429
1777572510073,3446
1777572510075,3459
1777572510077,3466
1777572510079,3473
1777572510081,3476
1777572510083,3470
1777572510101,3465
1777572510103,3467
1777572510105,3475
1777572510107,3473
1777572510109,3472
1777572510111,3480
1777572510113,3480
1777572510115,3485
1777572510117,3478
1777572510119,3478
1777572510101,3506
1777572510103,3501
1777572510105,3495
1777572510107,3495
1777572510109,3487
1777572510111,3493
1777572510113,3499
1777572510115,3502
1777572510117,3499
1777572510119,3499
1777572510146,3502
1777572510148,3512
1777572510150,3530
1777572510152,3552
1777572510154,3570
1777572510156,3582
1777572510158,3605
1777572510160,3619
1777572510162,3628
1777572510164,3618
1777572510146,3617
1777572510148,3605
1777572510150,3644
1777572510152,3669
1777572510154,3691
1777572510156,3708
1777572510158,3724
1777572510160,3736
1777572510162,3737
1777572510164,3734
1777572510146,3731
1777572510148,3736
1777572510150,3742
1777572510152,3753
1777572510154,3754
1777572510156,3764
1777572510158,3769
1777572510160,3773
1777572510162,3772
1777572510164,3763
1777572510193,3745
1777572510195,3724
1777572510197,3711
1777572510199,3692
1777572510201,3704
1777572510203,3722
1777572510205,3713
1777572510207,3692
1777572510209,3665
1777572510211,3634
1777572510193,3601
1777572510195,3563
1777572510197,3529
1777572510199,3500
1777572510201,3483
1777572510203,3475
1777572510205,3465
1777572510207,3451
1777572510209,3425
1777572510211,3400
1777572510235,3377
1777572510237,3362
1777572510239,3344
1777572510241,3331
1777572510243,3313
1777572510245,3305
1777572510247,3282
1777572510249,3300
1777572510251,3291
1777572510253,3275
1777572510235,3263
1777572510237,3248
1777572510239,3235
1777572510241,3223
1777572510243,3221
1777572510245,3226
1777572510247,3231
1777572510249,3229
1777572510251,3226
1777572510253,3214
1777572510289,3207
1777572510291,3199
1777572510293,3195
1777572510295,3194
1777572510297,3198
1777572510299,3209
1777572510301,3211
1777572510303,3221
1777572510305,3211
1777572510307,3236
1777572510289,3244
1777572510291,3243
1777572510293,3242
1777572510295,3252
1777572510297,3251
1777572510299,3253
1777572510301,3249
1777572510303,3246
1777572510305,3245
1777572510307,3241
1777572510289,3239
1777572510291,3241
1777572510293,3245
1777572510295,3248
1777572510297,3246
1777572510299,3253
1777572510301,3264
1777572510303,3268
1777572510305,3264
1777572510307,3244
1777572510325,3238
1777572510327,3212
1777572510329,3255
1777572510331,3257
1777572510333,3256
1777572510335,3257
1777572510337,3256
1777572510339,3254
1777572510341,3245
1777572510343,3227
1777572510325,3220
1777572510327,3219
1777572510329,3225
1777572510331,3228
1777572510333,3225
1777572510335,3237
1777572510337,3244
1777572510339,3247
1777572510341,3247
1777572510343,3244
1777572510370,3237
1777572510372,3227
1777572510374,3224
1777572510376,3208
1777572510378,3231
1777572510380,3246
1777572510382,3251
1777572510384,3259
1777572510386,3263
1777572510388,3257
1777572510370,3254
1777572510372,3256
1777572510374,3260
1777572510376,3259
1777572510378,3259
1777572510380,3257
1777572510382,3258
1777572510384,3262
1777572510386,3263
1777572510388,3262
1777572510460,3254
1777572510462,3248
1777572510464,3246
1777572510466,3248
1777572510468,3241
1777572510470,3240
1777572510472,3216
1777572510474,3242
1777572510476,3238
1777572510478,3227
1777572510461,3212
1777572510463,3199
1777572510465,3188
1777572510467,3186
1777572510469,3184
1777572510471,3186
1777572510473,3189
1777572510475,3187
1777572510477,3181
1777572510479,3169
1777572510461,3162
1777572510463,3157
1777572510465,3150
1777572510467,3148
1777572510469,3148
1777572510471,3149
1777572510473,3157
1777572510475,3162
1777572510477,3150
1777572510479,3163
1777572510462,3154
1777572510464,3150
1777572510466,3159
1777572510468,3169
1777572510470,3173
1777572510472,3178
1777572510474,3181
1777572510476,3181
1777572510478,3177
1777572510480,3163
1777572510462,3149
1777572510464,3145
1777572510466,3147
1777572510468,3148
1777572510470,3145
1777572510472,3144
1777572510474,3134
1777572510476,3130
1777572510478,3124
1777572510480,3107
1777572510551,3096
1777572510553,3060
1777572510555,3095
1777572510557,3113
1777572510559,3102
1777572510561,3084
1777572510563,3068
1777572510565,3051
1777572510567,3035
1777572510569,3020
1777572510551,3008
1777572510553,3000
1777572510555,2997
1777572510557,2987
1777572510559,2978
1777572510561,2984
1777572510563,2988
1777572510565,2994
1777572510567,2994
1777572510569,2984
1777572510551,2970
1777572510553,2961
1777572510555,2958
1777572510557,2956
1777572510559,2979
1777572510561,2990
1777572510563,2998
1777572510565,3000
1777572510567,3004
1777572510569,3004
1777572510551,3002
1777572510553,3002
1777572510555,3001
1777572510557,3003
1777572510559,3012
1777572510561,3015
1777572510563,3005
1777572510565,2998
1777572510567,2990
1777572510569,2981
1777572510596,2969
1777572510598,2957
1777572510600,2949
1777572510602,2939
1777572510604,2928
1777572510606,2925
1777572510608,2896
1777572510610,2945
1777572510612,2954
1777572510614,2942
1777572510596,2921
1777572510598,2903
1777572510600,2882
1777572510602,2871
1777572510604,2858
1777572510606,2858
1777572510608,2855
1777572510610,2853
1777572510612,2848
1777572510614,2841
1777572510641,2831
1777572510643,2825
1777572510645,2817
1777572510647,2810
1777572510649,2808
1777572510651,2803
1777572510653,2804
1777572510655,2809
1777572510657,2791
1777572510659,2808
1777572510641,2822
1777572510643,2820
1777572510645,2819
1777572510647,2820
1777572510649,2821
1777572510651,2826
1777572510653,2828
1777572510655,2828
1777572510657,2826
1777572510659,2817
1777572510641,2799
1777572510643,2783
1777572510645,2774
1777572510647,2764
1777572510649,2756
1777572510651,2762
1777572510653,2761
1777572510655,2759
1777572510657,2761
1777572510659,2748
1777572510686,2732
1777572510688,2694
1777572510690,2733
1777572510692,2731
1777572510694,2724
1777572510696,2716
1777572510698,2710
1777572510700,2703
1777572510702,2694
1777572510704,2676
1777572510738,2662
1777572510740,2652
1777572510742,2650
1777572510744,2642
1777572510746,2643
1777572510748,2645
1777572510750,2645
1777572510752,2638
1777572510754,2635
1777572510756,2628
1777572510738,2621
1777572510740,2615
1777572510742,2613
1777572510744,2600
1777572510746,2616
1777572510748,2616
1777572510750,2606
1777572510752,2604
1777572510754,2603
1777572510756,2601
1777572510738,2608
1777572510740,2612
1777572510742,2608
1777572510744,2616
1777572510746,2630
1777572510748,2639
1777572510750,2650
1777572510752,2658
1777572510754,2664
1777572510756,2666
1777572510775,2666
1777572510777,2658
1777572510779,2648
1777572510781,2634
1777572510783,2606
1777572510785,2588
1777572510787,2554
1777572510789,2600
1777572510791,2603
1777572510793,2597
1777572510775,2590
1777572510777,2582
1777572510779,2571
1777572510781,2559
1777572510783,2549
1777572510785,2544
1777572510787,2533
1777572510789,2521
1777572510791,2508
1777572510793,2496
1777572510820,2482
1777572510822,2469
1777572510824,2454
1777572510826,2443
1777572510828,2429
1777572510830,2426
1777572510832,2438
1777572510834,2445
1777572510836,2434
1777572510838,2442
1777572510820,2433
1777572510822,2417
1777572510824,2411
1777572510826,2405
1777572510828,2397
1777572510830,2400
1777572510832,2404
1777572510834,2407
1777572510836,2397
1777572510838,2378
1777572510821,2366
1777572510823,2362
1777572510825,2358
1777572510827,2354
1777572510829,2345
1777572510831,2346
1777572510833,2345
1777572510835,2344
1777572510837,2339
1777572510839,2324
1777572510865,2309
1777572510867,2270
1777572510869,2307
1777572510871,2313
1777572510873,2307
1777572510875,2301
1777572510877,2295
1777572510879,2288
1777572510881,2280
1777572510883,2268
1777572510911,2252
1777572510913,2243
1777572510915,2234
1777572510917,2227
1777572510919,2220
1777572510921,2222
1777572510923,2221
1777572510925,2225
1777572510927,2230
1777572510929,2233
1777572510911,2239
1777572510913,2249
1777572510915,2264
1777572510917,2282
1777572510919,2332
1777572510921,2369
1777572510923,2417
1777572510925,2484
1777572510927,2555
1777572510929,2629
1777572510911,2713
1777572510913,2798
1777572510915,2877
1777572510917,2959
1777572510919,3021
1777572510921,3056
1777572510923,3068
1777572510925,3059
1777572510927,3021
1777572510929,2946
1777572510961,2853
1777572510963,2744
1777572510965,2631
1777572510967,2526
1777572510969,2413
1777572510971,2312
1777572510973,2193
1777572510975,2157
1777572510977,2088
1777572510979,2029
1777572510961,1985
1777572510963,1950
1777572510965,1934
1777572510967,1933
1777572510969,1935
1777572510971,1948
1777572510973,1971
1777572510975,1989
1777572510977,2000
1777572510979,2009
1777572511000,2010
1777572511002,2006
1777572511004,1998
1777572511006,1996
1777572511008,1989
1777572511010,1993
1777572511012,1992
1777572511014,1991
1777572511016,1981
1777572511018,2003
1777572511000,2010
1777572511002,2020
1777572511004,2027
1777572511006,2031
1777572511008,2038
1777572511010,2043
1777572511012,2047
1777572511014,2045
1777572511016,2043
1777572511018,2036
1777572511045,2030
1777572511047,2025
1777572511049,2017
1777572511051,2014
1777572511053,2024
1777572511055,2028
1777572511057,2031
1777572511059,2034
1777572511061,2029
1777572511063,2008
1777572511046,1996
1777572511048,1971
1777572511050,1994
1777572511052,1995
1777572511054,2001
1777572511056,2012
1777572511058,2016
1777572511060,2028
1777572511062,2029
1777572511064,2018
1777572511091,2000
1777572511093,1988
1777572511095,1980
1777572511097,1983
1777572511099,1984
1777572511101,1993
1777572511103,1997
1777572511105,2001
1777572511107,2006
1777572511109,2006
1777572511091,2000
1777572511093,1991
1777572511095,1982
1777572511097,1965
1777572511099,1986
1777572511101,2000
1777572511103,2021
1777572511105,2034
1777572511107,2042
1777572511109,2038
1777572511091,2026
1777572511093,2012
1777572511095,2011
1777572511097,2014
1777572511099,2016
1777572511101,2025
1777572511103,2034
1777572511105,2041
1777572511107,2049
1777572511109,2062
1777572511135,2064
1777572511137,2063
1777572511139,2064
1777572511141,2068
1777572511143,2065
1777572511145,2083
1777572511147,2063
1777572511149,2106
1777572511151,2110
1777572511153,2110
1777572511135,2108
1777572511137,2104
1777572511139,2102
1777572511141,2094
1777572511143,2086
1777572511145,2082
1777572511147,2078
1777572511149,2078
1777572511151,2079
1777572511153,2074
1777572511185,2063
1777572511187,2048
1777572511189,2040
1777572511191,2034
1777572511193,2015
1777572511195,2007
1777572511197,1989
1777572511199,1971
1777572511201,1942
1777572511203,1945
1777572511185,1928
1777572511187,1915
1777572511189,1901
1777572511191,1890
1777572511193,1870
1777572511195,1850
1777572511197,1823
1777572511199,1797
1777572511201,1777
1777572511203,1753
1777572511225,1722
1777572511227,1696
1777572511229,1674
1777572511231,1654
1777572511233,1642
1777572511235,1635
1777572511237,1624
1777572511239,1605
1777572511241,1582
1777572511243,1553
1777572511225,1533
1777572511227,1496
1777572511229,1505
1777572511231,1491
1777572511233,1481
1777572511235,1473
1777572511237,1462
1777572511239,1457
1777572511241,1452
1777572511243,1448
1777572511280,1438
1777572511282,1428
1777572511284,1414
1777572511286,1417
1777572511288,1415
1777572511290,1418
1777572511292,1419
1777572511294,1418
1777572511296,1411
1777572511298,1403
1777572511280,1402
1777572511282,1396
1777572511284,1388
1777572511286,1366
1777572511288,1377
1777572511290,1382
1777572511292,1385
1777572511294,1386
1777572511296,1385
1777572511298,1376
1777572511280,1363
1777572511282,1351
1777572511284,1351
1777572511286,1354
1777572511288,1353
1777572511290,1363
1777572511292,1368
1777572511294,1371
1777572511296,1374
1777572511298,1374
1777572511323,1367
1777572511325,1356
1777572511327,1349
1777572511329,1348
1777572511331,1345
1777572511333,1355
1777572511335,1337
1777572511337,1374
1777572511339,1371
1777572511341,1360
1777572511323,1346
1777572511325,1343
1777572511327,1338
1777572511329,1331
1777572511331,1325
1777572511333,1331
1777572511335,1333
1777572511337,1334
1777572511339,1333
1777572511341,1329
1777572511360,1329
1777572511362,1326
1777572511364,1321
1777572511366,1319
1777572511368,1330
1777572511370,1338
1777572511372,1340
1777572511374,1344
1777572511376,1331
1777572511378,1346
1777572511360,1342
1777572511362,1337
1777572511364,1330
1777572511366,1331
1777572511368,1344
1777572511370,1346
1777572511372,1348
1777572511374,1356
1777572511376,1355
1777572511378,1354
1777572511407,1354
1777572511409,1352
1777572511411,1343
1777572511413,1342
1777572511415,1340
1777572511417,1348
1777572511419,1353
1777572511421,1355
1777572511423,1355
1777572511425,1343
1777572511407,1345
1777572511409,1329
1777572511411,1354
1777572511413,1355
1777572511415,1358
1777572511417,1358
1777572511419,1369
1777572511421,1372
1777572511423,1369
1777572511425,1361
1777572511451,1351
1777572511453,1339
1777572511455,1340
1777572511457,1349
1777572511459,1351
1777572511461,1354
1777572511463,1355
1777572511465,1358
1777572511467,1355
1777572511469,1351
1777572511451,1345
1777572511453,1336
1777572511455,1324
1777572511457,1308
1777572511459,1330
1777572511461,1350
1777572511463,1354
1777572511465,1355
1777572511467,1355
1777572511469,1353
1777572511451,1347
1777572511453,1335
1777572511455,1336
1777572511457,1336
1777572511459,1339
1777572511461,1347
1777572511463,1350
1777572511465,1356
1777572511467,1368
1777572511469,1370
1777572511506,1363
1777572511508,1352
1777572511510,1339
1777572511512,1325
1777572511514,1312
1777572511516,1319
1777572511518,1305
1777572511520,1354
1777572511522,1356
1777572511524,1351
1777572511506,1337
1777572511508,1336
1777572511510,1331
1777572511512,1327
1777572511514,1323
1777572511516,1328
1777572511518,1328
1777572511520,1334
1777572511522,1338
1777572511524,1340
1777572511556,1336
1777572511558,1328
1777572511560,1325
1777572511562,1333
1777572511564,1334
1777572511566,1338
1777572511568,1341
1777572511570,1351
1777572511572,1338
1777572511574,1356
1777572511556,1357
1777572511558,1351
1777572511560,1341
1777572511562,1335
1777572511564,1336
1777572511566,1345
1777572511568,1358
1777572511570,1367
1777572511572,1371
1777572511574,1378
1777572511585,1385
1777572511587,1383
1777572511589,1370
1777572511591,1370
1777572511593,1369
1777572511595,1370
1777572511597,1370
1777572511599,1370
1777572511601,1371
1777572511603,1361
1777572511585,1358
1777572511587,1338
1777572511589,1369
1777572511591,1373
1777572511593,1377
1777572511595,1379
1777572511597,1381
1777572511599,1389
1777572511601,1404
1777572511603,1413
1777572511632,1407
1777572511634,1390
1777572511636,1386
1777572511638,1385
1777572511640,1385
1777572511642,1394
1777572511644,1401
1777572511646,1406
1777572511648,1412
1777572511650,1417
1777572511632,1415
1777572511634,1409
1777572511636,1402
1777572511638,1380
1777572511640,1393
1777572511642,1409
1777572511644,1412
1777572511646,1409
1777572511648,1407
1777572511650,1404
1777572511632,1402
1777572511634,1399
1777572511636,1395
1777572511638,1394
1777572511640,1399
1777572511642,1409
1777572511644,1421
1777572511646,1428
1777572511648,1430
1777572511650,1431
1777572511675,1425
1777572511677,1415
1777572511679,1407
1777572511681,1401
1777572511683,1407
1777572511685,1416
1777572511687,1395
1777572511689,1444
1777572511691,1452
1777572511693,1458
1777572511675,1459
1777572511677,1447
1777572511679,1436
1777572511681,1430
1777572511683,1422
1777572511685,1422
1777572511687,1417
1777572511689,1425
1777572511691,1424
1777572511693,1426
1777572511728,1422
1777572511730,1421
1777572511732,1423
1777572511734,1432
1777572511736,1432
1777572511738,1442
1777572511740,1451
1777572511742,1456
1777572511744,1443
1777572511746,1466
1777572511728,1469
1777572511730,1467
1777572511732,1465
1777572511734,1461
1777572511736,1462
1777572511738,1465
1777572511740,1474
1777572511742,1473
1777572511744,1478
1777572511746,1481
1777572511765,1483
1777572511767,1483
1777572511769,1482
1777572511771,1492
