timestamp_ms,ecg_raw
1781829811518,1796
1781829811520,1840
1781829811522,1911
1781829811524,1990
1781829811526,2083
1781829811528,2173
1781829811530,2250
1781829811532,2313
1781829811534,2402
1781829811536,2536
1781829811518,2703
1781829811520,2873
1781829811522,3033
1781829811524,3159
1781829811526,3234
1781829811528,3214
1781829811530,3120
1781829811532,2989
1781829811534,2829
1781829811536,2696
1781829811576,2605
1781829811578,2537
1781829811580,2492
1781829811582,2465
1781829811584,2431
1781829811586,2380
1781829811588,2308
1781829811590,2235
1781829811592,2157
1781829811594,2100
1781829811576,2087
1781829811578,2094
1781829811580,2097
1781829811582,2109
1781829811584,2120
1781829811586,2112
1781829811588,2087
1781829811590,2033
1781829811592,1978
1781829811594,1955
1781829811606,1945
1781829811608,1943
1781829811610,1956
1781829811612,1988
1781829811614,2027
1781829811616,2048
1781829811618,2030
1781829811620,1990
1781829811622,1954
1781829811624,1944
1781829811606,1952
1781829811608,1975
1781829811610,1996
1781829811612,2027
1781829811614,2048
1781829811616,2047
1781829811618,2029
1781829811620,1989
1781829811622,1964
1781829811624,1953
1781829811639,1957
1781829811641,1997
1781829811643,2045
1781829811645,2073
1781829811647,2098
1781829811649,2107
1781829811651,2084
1781829811653,2035
1781829811655,1993
1781829811657,1979
1781829811639,1999
1781829811641,2038
1781829811643,2082
1781829811645,2130
1781829811647,2167
1781829811649,2171
1781829811651,2143
1781829811653,2099
1781829811655,2053
1781829811657,2031
1781829811640,2049
1781829811642,2093
1781829811644,2123
1781829811646,2153
1781829811648,2188
1781829811650,2201
1781829811652,2182
1781829811654,2129
1781829811656,2086
1781829811658,2065
1781829811675,2081
1781829811677,2125
1781829811679,2165
1781829811681,2209
1781829811683,2242
1781829811685,2258
1781829811687,2240
1781829811689,2208
1781829811691,2173
1781829811693,2157
1781829811675,2165
1781829811677,2198
1781829811679,2241
1781829811681,2280
1781829811683,2309
1781829811685,2322
1781829811687,2307
1781829811689,2268
1781829811691,2220
1781829811693,2185
1781829811735,2187
1781829811737,2205
1781829811739,2238
1781829811741,2270
1781829811743,2307
1781829811745,2328
1781829811747,2313
1781829811749,2272
1781829811751,2242
1781829811753,2235
1781829811736,2232
1781829811738,2233
1781829811740,2245
1781829811742,2264
1781829811744,2271
1781829811746,2267
1781829811748,2242
1781829811750,2191
1781829811752,2140
1781829811754,2097
1781829811767,2087
1781829811769,2096
1781829811771,2118
1781829811773,2139
1781829811775,2147
1781829811777,2130
1781829811779,2103
1781829811781,2049
1781829811783,1987
1781829811785,1944
1781829811767,1944
1781829811769,1962
1781829811771,1972
1781829811773,1984
1781829811775,1991
1781829811777,1993
1781829811779,1972
1781829811781,1936
1781829811783,1890
1781829811785,1852
1781829811831,1838
1781829811833,1847
1781829811835,1865
1781829811837,1889
1781829811839,1903
1781829811841,1907
1781829811843,1887
1781829811845,1837
1781829811847,1779
1781829811849,1750
1781829811831,1761
1781829811833,1774
1781829811835,1793
1781829811837,1822
1781829811839,1839
1781829811841,1842
1781829811843,1819
1781829811845,1765
1781829811847,1722
1781829811849,1690
1781829811831,1686
1781829811833,1709
1781829811835,1732
1781829811837,1759
1781829811839,1785
1781829811841,1791
1781829811843,1769
1781829811845,1718
1781829811847,1661
1781829811849,1632
1781829811866,1645
1781829811868,1678
1781829811870,1719
1781829811872,1762
1781829811874,1785
1781829811876,1792
1781829811878,1759
1781829811880,1711
1781829811882,1664
1781829811884,1632
1781829811866,1637
1781829811868,1664
1781829811870,1701
1781829811872,1734
1781829811874,1758
1781829811876,1757
1781829811878,1734
1781829811880,1686
1781829811882,1638
1781829811884,1607
1781829811906,1608
1781829811908,1639
1781829811910,1675
1781829811912,1704
1781829811914,1723
1781829811916,1730
1781829811918,1711
1781829811920,1670
1781829811922,1612
1781829811924,1577
1781829811906,1573
1781829811908,1596
1781829811910,1632
1781829811912,1662
1781829811914,1691
1781829811916,1711
1781829811918,1708
1781829811920,1672
1781829811922,1631
1781829811924,1609
1781829811960,1600
1781829811962,1627
1781829811964,1665
1781829811966,1698
1781829811968,1724
1781829811970,1742
1781829811972,1726
1781829811974,1693
1781829811976,1643
1781829811978,1614
1781829811960,1622
1781829811962,1637
1781829811964,1648
1781829811966,1665
1781829811968,1698
1781829811970,1728
1781829811972,1722
1781829811974,1680
1781829811976,1632
1781829811978,1605
1781829811997,1606
1781829811999,1622
1781829812001,1655
1781829812003,1691
1781829812005,1719
1781829812007,1728
1781829812009,1709
1781829812011,1668
1781829812013,1619
1781829812015,1590
1781829811997,1591
1781829811999,1634
1781829812001,1681
1781829812003,1715
1781829812005,1740
1781829812007,1753
1781829812009,1740
1781829812011,1695
1781829812013,1656
1781829812015,1638
1781829811997,1639
1781829811999,1662
1781829812001,1697
1781829812003,1734
1781829812005,1766
1781829812007,1785
1781829812009,1776
1781829812011,1739
1781829812013,1704
1781829812015,1695
1781829812061,1710
1781829812063,1732
1781829812065,1762
1781829812067,1801
1781829812069,1823
1781829812071,1820
1781829812073,1777
1781829812075,1721
1781829812077,1669
1781829812079,1639
1781829812061,1642
1781829812063,1661
1781829812065,1673
1781829812067,1698
1781829812069,1722
1781829812071,1729
1781829812073,1704
1781829812075,1656
1781829812077,1613
1781829812079,1585
1781829812090,1588
1781829812092,1610
1781829812094,1635
1781829812096,1672
1781829812098,1714
1781829812100,1742
1781829812102,1726
1781829812104,1680
1781829812106,1634
1781829812108,1605
1781829812090,1589
1781829812092,1597
1781829812094,1627
1781829812096,1670
1781829812098,1696
1781829812100,1688
1781829812102,1661
1781829812104,1619
1781829812106,1572
1781829812108,1548
1781829812151,1556
1781829812153,1587
1781829812155,1616
1781829812157,1648
1781829812159,1680
1781829812161,1688
1781829812163,1670
1781829812165,1622
1781829812167,1575
1781829812169,1562
1781829812151,1561
1781829812153,1579
1781829812155,1606
1781829812157,1628
1781829812159,1636
1781829812161,1626
1781829812163,1606
1781829812165,1571
1781829812167,1537
1781829812169,1532
1781829812184,1568
1781829812186,1635
1781829812188,1729
1781829812190,1849
1781829812192,1987
1781829812194,2132
1781829812196,2251
1781829812198,2354
1781829812200,2456
1781829812202,2559
1781829812184,2663
1781829812186,2755
1781829812188,2810
1781829812190,2815
1781829812192,2785
1781829812194,2700
1781829812196,2553
1781829812198,2396
1781829812200,2231
1781829812202,2115
1781829812184,2039
1781829812186,1998
1781829812188,1978
1781829812190,1968
1781829812192,1959
1781829812194,1937
1781829812196,1889
1781829812198,1817
1781829812200,1745
1781829812202,1687
1781829812215,1673
1781829812217,1687
1781829812219,1709
1781829812221,1738
1781829812223,1763
1781829812225,1773
1781829812227,1750
1781829812229,1686
1781829812231,1626
1781829812233,1589
1781829812215,1579
1781829812217,1599
1781829812219,1636
1781829812221,1680
1781829812223,1707
1781829812225,1707
1781829812227,1690
1781829812229,1654
1781829812231,1619
1781829812233,1598
1781829812284,1603
1781829812286,1624
1781829812288,1654
1781829812290,1685
1781829812292,1718
1781829812294,1729
1781829812296,1707
1781829812298,1663
1781829812300,1623
1781829812302,1612
1781829812284,1634
1781829812286,1670
1781829812288,1691
1781829812290,1722
1781829812292,1767
1781829812294,1787
1781829812296,1776
1781829812298,1737
1781829812300,1692
1781829812302,1663
1781829812313,1672
1781829812315,1702
1781829812317,1744
1781829812319,1782
1781829812321,1812
1781829812323,1828
1781829812325,1825
1781829812327,1785
1781829812329,1761
1781829812331,1749
1781829812313,1764
1781829812315,1802
1781829812317,1840
1781829812319,1877
1781829812321,1907
1781829812323,1916
1781829812325,1902
1781829812327,1856
1781829812329,1822
1781829812331,1812
1781829812377,1813
1781829812379,1834
1781829812381,1877
1781829812383,1928
1781829812385,1974
1781829812387,2003
1781829812389,1982
1781829812391,1931
1781829812393,1891
1781829812395,1881
1781829812377,1900
1781829812379,1933
1781829812381,1977
1781829812383,2023
1781829812385,2051
1781829812387,2051
1781829812389,2036
1781829812391,1995
1781829812393,1945
1781829812395,1928
1781829812377,1946
1781829812379,1981
1781829812381,2021
1781829812383,2070
1781829812385,2097
1781829812387,2107
1781829812389,2087
1781829812391,2033
1781829812393,1971
1781829812395,1936
1781829812411,1939
1781829812413,1974
1781829812415,2012
1781829812417,2034
1781829812419,2069
1781829812421,2076
1781829812423,2054
1781829812425,1989
1781829812427,1928
1781829812429,1909
1781829812411,1915
1781829812413,1933
1781829812415,1955
1781829812417,1983
1781829812419,2010
1781829812421,2020
1781829812423,2008
1781829812425,1955
1781829812427,1896
1781829812429,1868
1781829812445,1870
1781829812447,1877
1781829812449,1894
1781829812451,1929
1781829812453,1954
1781829812455,1957
1781829812457,1924
1781829812459,1865
1781829812461,1817
1781829812463,1795
1781829812445,1793
1781829812447,1800
1781829812449,1830
1781829812451,1872
1781829812453,1898
1781829812455,1905
1781829812457,1885
1781829812459,1839
1781829812461,1789
1781829812463,1756
1781829812511,1753
1781829812513,1780
1781829812515,1818
1781829812517,1855
1781829812519,1882
1781829812521,1892
1781829812523,1866
1781829812525,1811
1781829812527,1764
1781829812529,1748
1781829812511,1766
1781829812513,1802
1781829812515,1843
1781829812517,1884
1781829812519,1908
1781829812521,1909
1781829812523,1883
1781829812525,1840
1781829812527,1800
1781829812529,1785
1781829812511,1806
1781829812513,1844
1781829812515,1886
1781829812517,1927
1781829812519,1962
1781829812521,1963
1781829812523,1925
1781829812525,1863
1781829812527,1821
1781829812529,1814
1781829812544,1829
1781829812546,1868
1781829812548,1896
1781829812550,1926
1781829812552,1950
1781829812554,1960
1781829812556,1949
1781829812558,1905
1781829812560,1846
1781829812562,1823
1781829812544,1834
1781829812546,1856
1781829812548,1894
1781829812550,1930
1781829812552,1956
1781829812554,1964
1781829812556,1949
1781829812558,1897
1781829812560,1841
1781829812562,1808
1781829812578,1809
1781829812580,1832
1781829812582,1878
1781829812584,1924
1781829812586,1952
1781829812588,1955
1781829812590,1931
1781829812592,1877
1781829812594,1811
1781829812596,1775
1781829812578,1781
1781829812580,1800
1781829812582,1832
1781829812584,1856
1781829812586,1870
1781829812588,1860
1781829812590,1816
1781829812592,1763
1781829812594,1717
1781829812596,1685
1781829812646,1663
1781829812648,1676
1781829812650,1696
1781829812652,1720
1781829812654,1748
1781829812656,1760
1781829812658,1733
1781829812660,1669
1781829812662,1609
1781829812664,1576
1781829812646,1572
1781829812648,1601
1781829812650,1623
1781829812652,1648
1781829812654,1676
1781829812656,1680
1781829812658,1653
1781829812660,1605
1781829812662,1556
1781829812664,1529
1781829812679,1533
1781829812681,1565
1781829812683,1605
1781829812685,1651
1781829812687,1685
1781829812689,1699
1781829812691,1689
1781829812693,1646
1781829812695,1601
1781829812697,1581
1781829812679,1592
1781829812681,1622
1781829812683,1656
1781829812685,1693
1781829812687,1712
1781829812689,1724
1781829812691,1704
1781829812693,1654
1781829812695,1614
1781829812697,1596
1781829812679,1613
1781829812681,1643
1781829812683,1673
1781829812685,1678
1781829812687,1681
1781829812689,1689
1781829812691,1671
1781829812693,1624
1781829812695,1574
1781829812697,1529
1781829812745,1517
1781829812747,1539
1781829812749,1570
1781829812751,1599
1781829812753,1623
1781829812755,1627
1781829812757,1599
1781829812759,1547
1781829812761,1493
1781829812763,1462
1781829812745,1465
1781829812747,1499
1781829812749,1531
1781829812751,1566
1781829812753,1585
1781829812755,1602
1781829812757,1582
1781829812759,1537
1781829812761,1491
1781829812763,1458
1781829812778,1457
1781829812780,1485
1781829812782,1519
1781829812784,1541
1781829812786,1563
1781829812788,1576
1781829812790,1563
1781829812792,1523
1781829812794,1489
1781829812796,1473
1781829812778,1490
1781829812780,1518
1781829812782,1555
1781829812784,1590
1781829812786,1616
1781829812788,1627
1781829812790,1610
1781829812792,1562
1781829812794,1496
1781829812796,1458
1781829812812,1453
1781829812814,1468
1781829812816,1501
1781829812818,1546
1781829812820,1581
1781829812822,1596
1781829812824,1600
1781829812826,1587
1781829812828,1578
1781829812830,1608
1781829812812,1678
1781829812814,1799
1781829812816,1950
1781829812818,2103
1781829812820,2263
1781829812822,2412
1781829812824,2524
1781829812826,2604
1781829812828,2654
1781829812830,2684
1781829812844,2684
1781829812846,2661
1781829812848,2617
1781829812850,2539
1781829812852,2442
1781829812854,2337
1781829812856,2217
1781829812858,2082
1781829812860,1972
1781829812862,1900
1781829812844,1867
1781829812846,1863
1781829812848,1868
1781829812850,1874
1781829812852,1891
1781829812854,1899
1781829812856,1868
1781829812858,1802
1781829812860,1742
1781829812862,1720
1781829812844,1737
1781829812846,1781
1781829812848,1829
1781829812850,1866
1781829812852,1889
1781829812854,1896
1781829812856,1877
1781829812858,1834
1781829812860,1789
1781829812862,1762
1781829812911,1771
1781829812913,1805
1781829812915,1840
1781829812917,1874
1781829812919,1906
1781829812921,1923
1781829812923,1911
1781829812925,1884
1781829812927,1849
1781829812929,1825
1781829812911,1821
1781829812913,1846
1781829812915,1892
1781829812917,1927
1781829812919,1958
1781829812921,1980
1781829812923,1979
1781829812925,1946
1781829812927,1891
1781829812929,1864
1781829812944,1869
1781829812946,1895
1781829812948,1941
1781829812950,1992
1781829812952,2039
1781829812954,2055
1781829812956,2035
1781829812958,1999
1781829812960,1955
1781829812962,1932
1781829812944,1937
1781829812946,1964
1781829812948,2016
1781829812950,2074
1781829812952,2123
1781829812954,2137
1781829812956,2129
1781829812958,2089
1781829812960,2034
1781829812962,2013
1781829813011,2019
1781829813013,2063
1781829813015,2095
1781829813017,2130
1781829813019,2158
1781829813021,2168
1781829813023,2165
1781829813025,2140
1781829813027,2107
1781829813029,2094
1781829813011,2113
1781829813013,2161
1781829813015,2196
1781829813017,2220
1781829813019,2249
1781829813021,2263
1781829813023,2253
1781829813025,2219
1781829813027,2176
1781829813029,2158
1781829813044,2169
1781829813046,2196
1781829813048,2227
1781829813050,2258
1781829813052,2287
1781829813054,2305
1781829813056,2295
1781829813058,2256
1781829813060,2200
1781829813062,2178
1781829813044,2190
1781829813046,2230
1781829813048,2280
1781829813050,2315
1781829813052,2336
1781829813054,2354
1781829813056,2330
1781829813058,2289
1781829813060,2232
1781829813062,2210
1781829813044,2207
1781829813046,2223
1781829813048,2260
1781829813050,2289
1781829813052,2306
1781829813054,2314
1781829813056,2296
1781829813058,2255
1781829813060,2209
1781829813062,2180
1781829813077,2178
1781829813079,2195
1781829813081,2217
1781829813083,2241
1781829813085,2260
1781829813087,2260
1781829813089,2226
1781829813091,2160
1781829813093,2098
1781829813095,2069
1781829813144,2068
1781829813146,2081
1781829813148,2097
1781829813150,2120
1781829813152,2130
1781829813154,2131
1781829813156,2113
1781829813158,2066
1781829813160,2004
1781829813162,1994
1781829813144,1991
1781829813146,2004
1781829813148,2025
1781829813150,2051
1781829813152,2088
1781829813154,2103
1781829813156,2075
1781829813158,2020
1781829813160,1963
1781829813162,1927
1781829813144,1931
1781829813146,1946
1781829813148,1974
1781829813150,2013
1781829813152,2035
1781829813154,2037
1781829813156,2024
1781829813158,1983
1781829813160,1935
1781829813162,1908
1781829813177,1922
1781829813179,1951
1781829813181,1979
1781829813183,2007
1781829813185,2027
1781829813187,2030
1781829813189,2006
1781829813191,1960
1781829813193,1910
1781829813195,1880
1781829813177,1884
1781829813179,1905
1781829813181,1942
1781829813183,1981
1781829813185,2002
1781829813187,2004
1781829813189,1979
1781829813191,1922
1781829813193,1862
1781829813195,1829
1781829813244,1827
1781829813246,1848
1781829813248,1888
1781829813250,1937
1781829813252,1977
1781829813254,2000
1781829813256,1988
1781829813258,1937
1781829813260,1885
1781829813262,1844
1781829813244,1844
1781829813246,1865
1781829813248,1892
1781829813250,1924
1781829813252,1953
1781829813254,1965
1781829813256,1940
1781829813258,1878
1781829813260,1820
1781829813262,1795
1781829813244,1801
1781829813246,1824
1781829813248,1853
1781829813250,1882
1781829813252,1907
1781829813254,1915
1781829813256,1895
1781829813258,1841
1781829813260,1782
1781829813262,1752
1781829813277,1759
1781829813279,1785
1781829813281,1825
1781829813283,1856
1781829813285,1870
1781829813287,1863
1781829813289,1828
1781829813291,1783
1781829813293,1737
1781829813295,1713
1781829813310,1727
1781829813312,1758
1781829813314,1786
1781829813316,1817
1781829813318,1842
1781829813320,1855
1781829813322,1838
1781829813324,1793
1781829813326,1756
1781829813328,1750
1781829813310,1775
1781829813312,1819
1781829813314,1861
1781829813316,1899
1781829813318,1933
1781829813320,1946
1781829813322,1926
1781829813324,1890
1781829813326,1848
1781829813328,1824
1781829813310,1833
1781829813312,1867
1781829813314,1906
1781829813316,1945
1781829813318,1978
1781829813320,1997
1781829813322,1977
1781829813324,1915
1781829813326,1852
1781829813328,1810
1781829813344,1793
1781829813346,1804
1781829813348,1824
1781829813350,1834
1781829813352,1851
1781829813354,1856
1781829813356,1832
1781829813358,1783
1781829813360,1734
1781829813362,1706
1781829813344,1715
1781829813346,1735
1781829813348,1760
1781829813350,1789
1781829813352,1818
1781829813354,1821
1781829813356,1798
1781829813358,1751
1781829813360,1700
1781829813362,1663
1781829813409,1660
1781829813411,1686
1781829813413,1723
1781829813415,1756
1781829813417,1786
1781829813419,1807
1781829813421,1792
1781829813423,1742
1781829813425,1682
1781829813427,1656
1781829813409,1662
1781829813411,1701
1781829813413,1732
1781829813415,1759
1781829813417,1787
1781829813419,1802
1781829813421,1781
1781829813423,1732
1781829813425,1679
1781829813427,1647
1781829813439,1651
1781829813441,1681
1781829813443,1711
1781829813445,1734
1781829813447,1739
1781829813449,1732
1781829813451,1695
1781829813453,1636
1781829813455,1570
1781829813457,1525
1781829813439,1518
1781829813441,1558
1781829813443,1621
1781829813445,1688
1781829813447,1767
1781829813449,1853
1781829813451,1938
1781829813453,1998
1781829813455,2071
1781829813457,2175
1781829813500,2307
1781829813502,2449
1781829813504,2584
1781829813506,2703
1781829813508,2799
1781829813510,2819
1781829813512,2757
1781829813514,2641
1781829813516,2485
1781829813518,2336
1781829813500,2224
1781829813502,2145
1781829813504,2081
1781829813506,2052
1781829813508,2031
1781829813510,2009
1781829813512,1955
1781829813514,1873
1781829813516,1803
1781829813518,1753
1781829813500,1738
1781829813502,1740
1781829813504,1753
1781829813506,1757
1781829813508,1751
1781829813510,1739
1781829813512,1703
1781829813514,1636
1781829813516,1576
1781829813518,1552
1781829813532,1557
1781829813534,1590
1781829813536,1635
1781829813538,1671
1781829813540,1701
1781829813542,1726
1781829813544,1715
1781829813546,1669
1781829813548,1623
1781829813550,1590
1781829813532,1597
1781829813534,1626
1781829813536,1654
1781829813538,1699
1781829813540,1736
1781829813542,1764
1781829813544,1763
1781829813546,1715
1781829813548,1667
1781829813550,1638
1781829813532,1638
1781829813534,1669
1781829813536,1709
1781829813538,1753
1781829813540,1798
1781829813542,1831
1781829813544,1823
1781829813546,1780
1781829813548,1728
1781829813550,1693
1781829813566,1699
1781829813568,1724
1781829813570,1756
1781829813572,1792
1781829813574,1814
1781829813576,1813
1781829813578,1795
1781829813580,1762
1781829813582,1735
1781829813584,1719
1781829813631,1722
1781829813633,1746
1781829813635,1780
1781829813637,1840
1781829813639,1893
1781829813641,1905
1781829813643,1897
1781829813645,1865
1781829813647,1829
1781829813649,1825
1781829813631,1850
1781829813633,1887
1781829813635,1922
1781829813637,1968
1781829813639,2001
1781829813641,2012
1781829813643,1993
1781829813645,1954
1781829813647,1923
1781829813649,1900
1781829813631,1907
1781829813633,1935
1781829813635,1966
1781829813637,1998
1781829813639,2032
1781829813641,2053
1781829813643,2047
1781829813645,2016
1781829813647,1972
1781829813649,1957
1781829813661,1964
1781829813663,1991
1781829813665,2023
1781829813667,2050
1781829813669,2073
1781829813671,2084
1781829813673,2068
1781829813675,2023
1781829813677,1977
1781829813679,1949
1781829813661,1946
1781829813663,1975
1781829813665,2022
1781829813667,2068
1781829813669,2096
1781829813671,2115
1781829813673,2107
1781829813675,2070
1781829813677,2019
1781829813679,1990
1781829813725,1997
1781829813727,2014
1781829813729,2044
1781829813731,2063
1781829813733,2080
1781829813735,2084
1781829813737,2057
1781829813739,2004
1781829813741,1945
1781829813743,1905
1781829813725,1908
1781829813727,1941
1781829813729,1977
1781829813731,2011
1781829813733,2029
1781829813735,2027
1781829813737,1995
1781829813739,1937
1781829813741,1882
1781829813743,1842
1781829813759,1828
1781829813761,1844
1781829813763,1870
1781829813765,1898
1781829813767,1918
1781829813769,1918
1781829813771,1891
1781829813773,1841
1781829813775,1793
1781829813777,1771
1781829813759,1776
1781829813761,1799
1781829813763,1831
1781829813765,1849
1781829813767,1869
1781829813769,1887
1781829813771,1868
1781829813773,1818
1781829813775,1764
1781829813777,1741
1781829813791,1740
1781829813793,1760
1781829813795,1800
1781829813797,1832
1781829813799,1852
1781829813801,1856
1781829813803,1845
1781829813805,1807
1781829813807,1766
1781829813809,1754
1781829813792,1768
1781829813794,1793
1781829813796,1823
1781829813798,1847
1781829813800,1870
1781829813802,1871
1781829813804,1851
1781829813806,1797
1781829813808,1739
1781829813810,1708
1781829813792,1712
1781829813794,1742
1781829813796,1777
1781829813798,1820
1781829813800,1857
1781829813802,1861
1781829813804,1835
1781829813806,1778
1781829813808,1716
1781829813810,1677
1781829813857,1686
1781829813859,1722
1781829813861,1767
1781829813863,1810
1781829813865,1838
1781829813867,1854
1781829813869,1843
1781829813871,1798
1781829813873,1745
1781829813875,1709
1781829813857,1712
1781829813859,1740
1781829813861,1765
1781829813863,1801
1781829813865,1839
1781829813867,1855
1781829813869,1839
1781829813871,1796
1781829813873,1746
1781829813875,1719
1781829813889,1728
1781829813891,1751
1781829813893,1777
1781829813895,1819
1781829813897,1867
1781829813899,1891
1781829813901,1878
1781829813903,1831
1781829813905,1784
1781829813907,1749
1781829813889,1744
1781829813891,1754
1781829813893,1804
1781829813895,1838
1781829813897,1871
1781829813899,1883
1781829813901,1865
1781829813903,1825
1781829813905,1779
1781829813907,1754
1781829813953,1755
1781829813955,1782
1781829813957,1828
1781829813959,1882
1781829813961,1931
1781829813963,1958
1781829813965,1950
1781829813967,1922
1781829813969,1879
1781829813971,1850
1781829813953,1856
1781829813955,1887
1781829813957,1923
1781829813959,1968
1781829813961,2015
1781829813963,2047
1781829813965,2037
1781829813967,2001
1781829813969,1950
1781829813971,1922
1781829813982,1928
1781829813984,1958
1781829813986,1988
1781829813988,2012
1781829813990,2025
1781829813992,2012
1781829813994,1989
1781829813996,1950
1781829813998,1900
1781829814000,1865
1781829813982,1871
1781829813984,1908
1781829813986,1948
1781829813988,1983
1781829813990,2017
1781829813992,2023
1781829813994,2000
1781829813996,1952
1781829813998,1904
1781829814000,1881
1781829813982,1880
1781829813984,1908
1781829813986,1952
1781829813988,1985
1781829813990,2017
1781829813992,2046
1781829813994,2030
1781829813996,1980
1781829813998,1940
1781829814000,1924
1781829814043,1926
1781829814045,1949
1781829814047,1971
1781829814049,1993
1781829814051,2018
1781829814053,2032
1781829814055,2017
1781829814057,1966
1781829814059,1911
1781829814061,1870
1781829814043,1865
1781829814045,1891
1781829814047,1919
1781829814049,1948
1781829814051,1980
1781829814053,1993
1781829814055,1972
1781829814057,1927
1781829814059,1869
1781829814061,1825
1781829814077,1813
1781829814079,1828
1781829814081,1849
1781829814083,1871
1781829814085,1897
1781829814087,1926
1781829814089,1950
1781829814091,1956
1781829814093,1957
1781829814095,1982
1781829814077,2067
1781829814079,2196
1781829814081,2344
1781829814083,2504
1781829814085,2666
1781829814087,2819
1781829814089,2938
1781829814091,3009
1781829814093,3041
1781829814095,3034
1781829814108,2992
1781829814110,2928
1781829814112,2836
1781829814114,2732
1781829814116,2636
1781829814118,2546
1781829814120,2422
1781829814122,2286
1781829814124,2167
1781829814126,2074
1781829814108,2020
1781829814110,2010
1781829814112,2011
1781829814114,2024
1781829814116,2033
1781829814118,2018
1781829814120,1989
1781829814122,1937
1781829814124,1879
1781829814126,1835
1781829814175,1822
1781829814177,1840
1781829814179,1869
1781829814181,1887
1781829814183,1904
1781829814185,1911
1781829814187,1902
1781829814189,1869
1781829814191,1816
1781829814193,1770
1781829814175,1760
1781829814177,1781
1781829814179,1810
1781829814181,1847
1781829814183,1880
1781829814185,1894
1781829814187,1885
1781829814189,1837
1781829814191,1771
1781829814193,1741
1781829814175,1754
1781829814177,1782
1781829814179,1821
1781829814181,1861
1781829814183,1892
1781829814185,1912
1781829814187,1909
1781829814189,1871
1781829814191,1826
1781829814193,1805
1781829814206,1806
1781829814208,1816
1781829814210,1833
1781829814212,1869
1781829814214,1909
1781829814216,1931
1781829814218,1920
1781829814220,1882
1781829814222,1841
1781829814224,1824
1781829814206,1826
1781829814208,1852
1781829814210,1892
1781829814212,1938
1781829814214,1991
1781829814216,2017
1781829814218,2002
1781829814220,1952
1781829814222,1902
1781829814224,1878
1781829814269,1888
1781829814271,1930
1781829814273,1981
1781829814275,2032
1781829814277,2077
1781829814279,2082
1781829814281,2059
1781829814283,2025
1781829814285,1998
1781829814287,1989
1781829814269,2006
1781829814271,2048
1781829814273,2095
1781829814275,2137
1781829814277,2183
1781829814279,2199
1781829814281,2178
1781829814283,2131
1781829814285,2092
1781829814287,2063
1781829814300,2062
1781829814302,2085
1781829814304,2113
1781829814306,2149
1781829814308,2181
1781829814310,2202
1781829814312,2204
1781829814314,2174
1781829814316,2139
1781829814318,2118
1781829814300,2129
1781829814302,2167
1781829814304,2210
1781829814306,2235
1781829814308,2257
1781829814310,2270
1781829814312,2251
1781829814314,2208
1781829814316,2147
1781829814318,2099
1781829814332,2096
1781829814334,2141
1781829814336,2194
1781829814338,2234
1781829814340,2262
1781829814342,2275
1781829814344,2256
1781829814346,2215
1781829814348,2184
1781829814350,2160
1781829814332,2153
1781829814334,2169
1781829814336,2201
1781829814338,2240
1781829814340,2267
1781829814342,2276
1781829814344,2252
1781829814346,2193
1781829814348,2134
1781829814350,2102
1781829814332,2095
1781829814334,2110
1781829814336,2142
1781829814338,2171
1781829814340,2202
1781829814342,2213
1781829814344,2196
1781829814346,2148
1781829814348,2102
1781829814350,2088
1781829814398,2094
1781829814400,2121
1781829814402,2154
1781829814404,2181
1781829814406,2205
1781829814408,2209
1781829814410,2203
1781829814412,2169
1781829814414,2139
1781829814416,2112
1781829814398,2112
1781829814400,2142
1781829814402,2180
1781829814404,2216
1781829814406,2247
1781829814408,2272
1781829814410,2255
1781829814412,2207
1781829814414,2166
1781829814416,2143
1781829814429,2144
1781829814431,2164
1781829814433,2208
1781829814435,2255
1781829814437,2283
1781829814439,2286
1781829814441,2263
1781829814443,2222
1781829814445,2181
1781829814447,2148
1781829814429,2148
1781829814431,2169
1781829814433,2200
1781829814435,2216
1781829814437,2239
1781829814439,2250
1781829814441,2242
1781829814443,2199
1781829814445,2160
1781829814447,2143
1781829814494,2150
1781829814496,2165
1781829814498,2184
1781829814500,2222
1781829814502,2245
1781829814504,2259
1781829814506,2249
1781829814508,2224
1781829814510,2184
1781829814512,2161
1781829814494,2162
1781829814496,2193
1781829814498,2230
1781829814500,2261
1781829814502,2291
1781829814504,2319
1781829814506,2308
1781829814508,2262
1781829814510,2199
1781829814512,2156
1781829814526,2152
1781829814528,2185
1781829814530,2215
1781829814532,2233
1781829814534,2251
1781829814536,2257
1781829814538,2238
1781829814540,2200
1781829814542,2161
1781829814544,2140
1781829814526,2147
1781829814528,2168
1781829814530,2202
1781829814532,2247
1781829814534,2282
1781829814536,2303
1781829814538,2298
1781829814540,2255
1781829814542,2206
1781829814544,2176
1781829814526,2174
1781829814528,2200
1781829814530,2243
1781829814532,2291
1781829814534,2325
1781829814536,2360
1781829814538,2365
1781829814540,2325
1781829814542,2281
1781829814544,2268
1781829814596,2281
1781829814598,2320
1781829814600,2364
1781829814602,2403
1781829814604,2441
1781829814606,2468
1781829814608,2471
1781829814610,2442
1781829814612,2403
1781829814614,2379
1781829814596,2387
1781829814598,2406
1781829814600,2436
1781829814602,2487
1781829814604,2514
1781829814606,2519
1781829814608,2496
1781829814610,2444
1781829814612,2382
1781829814614,2351
1781829814631,2342
1781829814633,2362
1781829814635,2390
1781829814637,2407
1781829814639,2444
1781829814641,2464
1781829814643,2443
1781829814645,2396
1781829814647,2340
1781829814649,2308
1781829814631,2303
1781829814633,2321
1781829814635,2351
1781829814637,2398
1781829814639,2432
1781829814641,2445
1781829814643,2425
1781829814645,2381
1781829814647,2336
1781829814649,2299
1781829814666,2294
1781829814668,2327
1781829814670,2378
1781829814672,2420
1781829814674,2448
1781829814676,2471
1781829814678,2449
1781829814680,2397
1781829814682,2356
1781829814684,2330
1781829814666,2337
1781829814668,2365
1781829814670,2398
1781829814672,2430
1781829814674,2452
1781829814676,2460
1781829814678,2444
1781829814680,2406
1781829814682,2353
1781829814684,2328
1781829814704,2327
1781829814706,2351
1781829814708,2384
1781829814710,2408
1781829814712,2414
1781829814714,2395
1781829814716,2359
1781829814718,2331
1781829814720,2305
1781829814722,2317
1781829814704,2352
1781829814706,2434
1781829814708,2544
1781829814710,2677
1781829814712,2819
1781829814714,2961
1781829814716,3086
1781829814718,3195
1781829814720,3271
1781829814722,3329
1781829814704,3398
1781829814706,3447
1781829814708,3442
1781829814710,3391
1781829814712,3306
1781829814714,3177
1781829814716,3018
1781829814718,2844
1781829814720,2688
1781829814722,2583
1781829814763,2523
1781829814765,2498
1781829814767,2482
1781829814769,2484
1781829814771,2496
1781829814773,2511
1781829814775,2503
1781829814777,2467
1781829814779,2426
1781829814781,2393
1781829814763,2386
1781829814765,2393
1781829814767,2421
1781829814769,2455
1781829814771,2487
1781829814773,2494
1781829814775,2478
1781829814777,2438
1781829814779,2382
1781829814781,2347
1781829814792,2346
1781829814794,2380
1781829814796,2434
1781829814798,2481
1781829814800,2507
1781829814802,2522
1781829814804,2523
1781829814806,2486
1781829814808,2443
1781829814810,2417
1781829814792,2426
1781829814794,2460
1781829814796,2499
1781829814798,2536
1781829814800,2567
1781829814802,2593
1781829814804,2600
1781829814806,2579
1781829814808,2541
1781829814810,2524
1781829814825,2543
1781829814827,2590
1781829814829,2629
1781829814831,2662
1781829814833,2697
1781829814835,2712
1781829814837,2721
1781829814839,2693
1781829814841,2629
1781829814843,2602
1781829814825,2605
1781829814827,2639
1781829814829,2687
1781829814831,2735
1781829814833,2770
1781829814835,2793
1781829814837,2797
1781829814839,2769
1781829814841,2732
1781829814843,2710
1781829814892,2716
1781829814894,2766
1781829814896,2829
1781829814898,2882
1781829814900,2908
1781829814902,2919
1781829814904,2898
1781829814906,2844
1781829814908,2787
1781829814910,2766
1781829814892,2790
1781829814894,2814
1781829814896,2868
1781829814898,2916
1781829814900,2960
1781829814902,2991
1781829814904,2995
1781829814906,2957
1781829814908,2908
1781829814910,2881
1781829814892,2882
1781829814894,2927
1781829814896,2983
1781829814898,3040
1781829814900,3072
1781829814902,3080
1781829814904,3069
1781829814906,3027
1781829814908,2985
1781829814910,2950
1781829814925,2959
1781829814927,2990
1781829814929,3042
1781829814931,3072
1781829814933,3115
1781829814935,3142
1781829814937,3144
1781829814939,3101
1781829814941,3043
1781829814943,2996
1781829814925,2983
1781829814927,2999
1781829814929,3024
1781829814931,3065
1781829814933,3106
1781829814935,3108
1781829814937,3070
1781829814939,3013
1781829814941,2949
1781829814943,2904
1781829814991,2904
1781829814993,2929
1781829814995,2967
1781829814997,3001
1781829814999,3031
1781829815001,3041
1781829815003,3014
1781829815005,2953
1781829815007,2892
1781829815009,2857
1781829814992,2853
1781829814994,2876
1781829814996,2898
1781829814998,2928
1781829815000,2958
1781829815002,2957
1781829815004,2915
1781829815006,2843
1781829815008,2774
1781829815010,2719
1781829815022,2689
1781829815024,2708
1781829815026,2745
1781829815028,2776
1781829815030,2808
1781829815032,2820
1781829815034,2797
1781829815036,2754
1781829815038,2706
1781829815040,2676
1781829815022,2673
1781829815024,2702
1781829815026,2739
1781829815028,2767
1781829815030,2787
1781829815032,2798
1781829815034,2790
1781829815036,2743
1781829815038,2688
1781829815040,2657
1781829815022,2650
1781829815024,2668
1781829815026,2703
1781829815028,2754
1781829815030,2800
1781829815032,2818
1781829815034,2786
1781829815036,2735
1781829815038,2678
1781829815040,2646
1781829815053,2642
1781829815055,2660
1781829815057,2694
1781829815059,2731
1781829815061,2763
1781829815063,2783
1781829815065,2763
1781829815067,2710
1781829815069,2651
1781829815071,2600
1781829815053,2591
1781829815055,2610
1781829815057,2646
1781829815059,2671
1781829815061,2689
1781829815063,2690
1781829815065,2659
1781829815067,2610
1781829815069,2555
1781829815071,2520
1781829815113,2513
1781829815115,2531
1781829815117,2569
1781829815119,2588
1781829815121,2612
1781829815123,2617
1781829815125,2595
1781829815127,2538
1781829815129,2490
1781829815131,2474
1781829815113,2478
1781829815115,2511
1781829815117,2546
1781829815119,2577
1781829815121,2599
1781829815123,2607
1781829815125,2580
1781829815127,2527
1781829815129,2479
1781829815131,2444
1781829815146,2436
1781829815148,2453
1781829815150,2481
1781829815152,2507
1781829815154,2540
1781829815156,2562
1781829815158,2542
1781829815160,2484
1781829815162,2436
1781829815164,2403
1781829815146,2402
1781829815148,2414
1781829815150,2438
1781829815152,2486
1781829815154,2527
1781829815156,2552
1781829815158,2556
1781829815160,2514
1781829815162,2446
1781829815164,2404
1781829815209,2389
1781829815211,2407
1781829815213,2421
1781829815215,2438
1781829815217,2443
1781829815219,2444
1781829815221,2410
1781829815223,2352
1781829815225,2296
1781829815227,2255
1781829815209,2246
1781829815211,2268
1781829815213,2299
1781829815215,2328
1781829815217,2351
1781829815219,2361
1781829815221,2351
1781829815223,2294
1781829815225,2230
1781829815227,2194
1781829815209,2180
1781829815211,2199
1781829815213,2227
1781829815215,2268
1781829815217,2290
1781829815219,2289
1781829815221,2271
1781829815223,2242
1781829815225,2211
1781829815227,2187
1781829815244,2178
1781829815246,2194
1781829815248,2220
1781829815250,2247
1781829815252,2275
1781829815254,2286
1781829815256,2268
1781829815258,2212
1781829815260,2149
1781829815262,2109
1781829815244,2099
1781829815246,2118
1781829815248,2140
1781829815250,2157
1781829815252,2175
1781829815254,2186
1781829815256,2159
1781829815258,2107
1781829815260,2041
1781829815262,1996
1781829815275,1982
1781829815277,1991
1781829815279,2018
1781829815281,2049
1781829815283,2100
1781829815285,2146
1781829815287,2169
1781829815289,2176
1781829815291,2193
1781829815293,2249
1781829815275,2350
1781829815277,2484
1781829815279,2643
1781829815281,2806
1781829815283,2945
1781829815285,3043
1781829815287,3071
1781829815289,3021
1781829815291,2942
1781829815293,2846
1781829815339,2754
1781829815341,2646
1781829815343,2552
1781829815345,2480
1781829815347,2409
1781829815349,2337
1781829815351,2253
1781829815353,2157
1781829815355,2069
1781829815357,1996
1781829815339,1961
1781829815341,1960
1781829815343,1972
1781829815345,1983
1781829815347,2000
1781829815349,1999
1781829815351,1980
1781829815353,1931
1781829815355,1871
1781829815357,1822
1781829815376,1809
1781829815378,1825
1781829815380,1852
1781829815382,1883
1781829815384,1916
1781829815386,1925
1781829815388,1903
1781829815390,1868
1781829815392,1826
1781829815394,1797
1781829815376,1796
1781829815378,1813
1781829815380,1839
1781829815382,1873
1781829815384,1892
1781829815386,1889
1781829815388,1857
1781829815390,1803
1781829815392,1759
1781829815394,1731
1781829815376,1725
1781829815378,1756
1781829815380,1803
1781829815382,1854
1781829815384,1893
1781829815386,1902
1781829815388,1885
1781829815390,1837
1781829815392,1773
1781829815394,1743
1781829815442,1726
1781829815444,1735
1781829815446,1771
1781829815448,1809
1781829815450,1841
1781829815452,1857
1781829815454,1845
1781829815456,1813
1781829815458,1783
1781829815460,1760
1781829815442,1757
1781829815444,1784
1781829815446,1823
1781829815448,1857
1781829815450,1881
1781829815452,1903
1781829815454,1906
1781829815456,1880
1781829815458,1846
1781829815460,1820
1781829815509,1820
1781829815511,1854
1781829815513,1903
1781829815515,1950
1781829815517,1981
1781829815519,1992
1781829815521,1975
1781829815523,1930
1781829815525,1890
1781829815527,1870
1781829815509,1882
1781829815511,1909
1781829815513,1952
1781829815515,1984
1781829815517,2011
1781829815519,2023
1781829815521,2008
1781829815523,1975
1781829815525,1944
1781829815527,1923
1781829815509,1924
1781829815511,1947
1781829815513,1972
1781829815515,2002
1781829815517,2029
1781829815519,2045
1781829815521,2031
1781829815523,1987
1781829815525,1942
1781829815527,1908
1781829815509,1910
1781829815511,1931
1781829815513,1957
1781829815515,1977
1781829815517,1985
1781829815519,1972
1781829815521,1936
1781829815523,1883
1781829815525,1824
1781829815527,1783
1781829815575,1770
1781829815577,1775
1781829815579,1802
1781829815581,1826
1781829815583,1841
1781829815585,1822
1781829815587,1786
1781829815589,1732
1781829815591,1667
1781829815593,1625
1781829815575,1603
1781829815577,1610
1781829815579,1627
1781829815581,1643
1781829815583,1652
1781829815585,1649
1781829815587,1622
1781829815589,1568
1781829815591,1508
1781829815593,1460
1781829815575,1440
1781829815577,1442
1781829815579,1459
1781829815581,1480
1781829815583,1505
1781829815585,1517
1781829815587,1502
1781829815589,1451
1781829815591,1400
1781829815593,1376
1781829815638,1373
1781829815640,1386
1781829815642,1416
1781829815644,1454
1781829815646,1494
1781829815648,1518
1781829815650,1518
1781829815652,1488
1781829815654,1440
1781829815656,1393
1781829815638,1390
1781829815640,1413
1781829815642,1442
1781829815644,1477
1781829815646,1504
1781829815648,1524
1781829815650,1518
1781829815652,1489
1781829815654,1445
1781829815656,1417
1781829815638,1421
1781829815640,1447
1781829815642,1492
1781829815644,1546
1781829815646,1588
1781829815648,1609
1781829815650,1598
1781829815652,1559
1781829815654,1508
1781829815656,1459
1781829815638,1428
1781829815640,1428
1781829815642,1445
1781829815644,1470
1781829815646,1494
1781829815648,1501
1781829815650,1479
1781829815652,1441
1781829815654,1394
1781829815656,1361
1781829815709,1362
1781829815711,1379
1781829815713,1422
1781829815715,1468
1781829815717,1505
1781829815719,1517
1781829815721,1503
1781829815723,1452
1781829815725,1401
1781829815727,1378
1781829815709,1369
1781829815711,1375
1781829815713,1394
1781829815715,1426
1781829815717,1455
1781829815719,1471
1781829815721,1464
1781829815723,1432
1781829815725,1384
1781829815727,1352
1781829815771,1349
1781829815773,1365
1781829815775,1381
1781829815777,1409
1781829815779,1437
1781829815781,1435
1781829815783,1412
1781829815785,1372
1781829815787,1325
1781829815789,1291
1781829815771,1291
1781829815773,1320
1781829815775,1366
1781829815777,1396
1781829815779,1409
1781829815781,1424
1781829815783,1426
1781829815785,1398
1781829815787,1361
1781829815789,1341
1781829815771,1352
1781829815773,1379
1781829815775,1410
1781829815777,1449
1781829815779,1481
1781829815781,1501
1781829815783,1491
1781829815785,1451
1781829815787,1412
1781829815789,1383
1781829815771,1378
1781829815773,1395
1781829815775,1423
1781829815777,1448
1781829815779,1464
1781829815781,1462
1781829815783,1436
1781829815785,1386
1781829815787,1334
1781829815789,1305
1781829815771,1300
1781829815773,1327
1781829815775,1376
1781829815777,1388
1781829815779,1376
1781829815781,1365
1781829815783,1348
1781829815785,1313
1781829815787,1265
1781829815789,1223
1781829815825,1218
1781829815827,1248
1781829815829,1284
1781829815831,1316
1781829815833,1340
1781829815835,1363
1781829815837,1357
1781829815839,1326
1781829815841,1285
1781829815843,1254
1781829815825,1245
1781829815827,1266
1781829815829,1293
1781829815831,1319
1781829815833,1350
1781829815835,1364
1781829815837,1357
1781829815839,1318
1781829815841,1271
1781829815843,1242
1781829815912,1238
1781829815914,1262
1781829815916,1292
1781829815918,1325
1781829815920,1355
1781829815922,1371
1781829815924,1369
1781829815926,1336
1781829815928,1293
1781829815930,1257
1781829815912,1246
1781829815914,1271
1781829815916,1314
1781829815918,1353
1781829815920,1373
1781829815922,1389
1781829815924,1377
1781829815926,1336
1781829815928,1301
1781829815930,1299
1781829815967,1326
1781829815969,1395
1781829815971,1495
1781829815973,1618
1781829815975,1751
1781829815977,1879
1781829815979,1994
1781829815981,2094
1781829815983,2188
1781829815985,2284
1781829815967,2375
1781829815969,2446
1781829815971,2496
1781829815973,2511
1781829815975,2483
1781829815977,2413
1781829815979,2293
1781829815981,2153
1781829815983,2009
1781829815985,1902
1781829815967,1834
1781829815969,1800
1781829815971,1787
1781829815973,1779
1781829815975,1778
1781829815977,1768
1781829815979,1732
1781829815981,1676
1781829815983,1625
1781829815985,1577
1781829815967,1553
1781829815969,1554
1781829815971,1560
1781829815973,1565
1781829815975,1573
1781829815977,1580
1781829815979,1566
1781829815981,1527
1781829815983,1475
1781829815985,1443
1781829816024,1443
1781829816026,1471
1781829816028,1508
1781829816030,1540
1781829816032,1566
1781829816034,1582
1781829816036,1559
1781829816038,1508
1781829816040,1464
1781829816042,1452
1781829816024,1462
1781829816026,1499
1781829816028,1537
1781829816030,1569
1781829816032,1595
1781829816034,1611
1781829816036,1600
1781829816038,1571
1781829816040,1535
1781829816042,1510
1781829816024,1502
1781829816026,1528
1781829816028,1569
1781829816030,1603
1781829816032,1623
1781829816034,1632
1781829816036,1615
1781829816038,1582
1781829816040,1540
1781829816042,1510
1781829816050,1511
1781829816052,1532
1781829816054,1572
1781829816056,1612
1781829816058,1643
1781829816060,1659
1781829816062,1647
1781829816064,1609
1781829816066,1570
1781829816068,1548
1781829816050,1565
1781829816052,1593
1781829816054,1617
1781829816056,1635
1781829816058,1650
1781829816060,1659
1781829816062,1654
1781829816064,1627
1781829816066,1599
1781829816068,1587
1781829816110,1605
1781829816112,1642
1781829816114,1680
1781829816116,1720
1781829816118,1770
1781829816120,1795
1781829816122,1774
1781829816124,1728
1781829816126,1684
1781829816128,1655
1781829816110,1652
1781829816112,1675
1781829816114,1714
1781829816116,1748
1781829816118,1776
1781829816120,1796
1781829816122,1788
1781829816124,1762
1781829816126,1721
1781829816128,1699
1781829816110,1688
1781829816112,1714
1781829816114,1751
1781829816116,1778
1781829816118,1807
1781829816120,1826
1781829816122,1809
1781829816124,1761
1781829816126,1706
1781829816128,1669
1781829816141,1657
1781829816143,1684
1781829816145,1708
1781829816147,1731
1781829816149,1742
1781829816151,1734
1781829816153,1692
1781829816155,1639
1781829816157,1582
1781829816159,1541
1781829816176,1526
1781829816178,1530
1781829816180,1548
1781829816182,1570
1781829816184,1578
1781829816186,1576
1781829816188,1556
1781829816190,1512
1781829816192,1461
1781829816194,1412
1781829816176,1397
1781829816178,1419
1781829816180,1444
1781829816182,1467
1781829816184,1488
1781829816186,1487
1781829816188,1460
1781829816190,1412
1781829816192,1360
1781829816194,1321
1781829816176,1312
1781829816178,1322
1781829816180,1340
1781829816182,1369
1781829816184,1397
1781829816186,1424
1781829816188,1416
1781829816190,1383
1781829816192,1344
1781829816194,1318
1781829816242,1316
1781829816244,1339
1781829816246,1365
1781829816248,1394
1781829816250,1411
1781829816252,1430
1781829816254,1427
1781829816256,1392
1781829816258,1345
1781829816260,1311
1781829816242,1316
1781829816244,1352
1781829816246,1397
1781829816248,1442
1781829816250,1477
1781829816252,1496
1781829816254,1492
1781829816256,1461
1781829816258,1429
1781829816260,1403
1781829816272,1405
1781829816274,1430
1781829816276,1466
1781829816278,1496
1781829816280,1525
1781829816282,1547
1781829816284,1529
1781829816286,1479
1781829816288,1432
1781829816290,1402
1781829816272,1403
1781829816274,1434
1781829816276,1472
1781829816278,1510
1781829816280,1540
1781829816282,1557
1781829816284,1555
1781829816286,1519
1781829816288,1477
1781829816290,1437
1781829816337,1428
1781829816339,1447
1781829816341,1480
1781829816343,1504
1781829816345,1533
1781829816347,1556
1781829816349,1549
1781829816351,1506
1781829816353,1455
1781829816355,1410
1781829816337,1403
1781829816339,1441
1781829816341,1480
1781829816343,1517
1781829816345,1554
1781829816347,1563
1781829816349,1544
1781829816351,1498
1781829816353,1445
1781829816355,1413
1781829816400,1419
1781829816402,1453
1781829816404,1495
1781829816406,1533
1781829816408,1570
1781829816410,1583
1781829816412,1573
1781829816414,1532
1781829816416,1493
1781829816418,1466
1781829816400,1466
1781829816402,1496
1781829816404,1522
1781829816406,1544
1781829816408,1566
1781829816410,1581
1781829816412,1586
1781829816414,1560
1781829816416,1512
1781829816418,1479
1781829816400,1482
1781829816402,1511
1781829816404,1552
1781829816406,1597
1781829816408,1634
1781829816410,1652
1781829816412,1653
1781829816414,1616
1781829816416,1568
1781829816418,1535
1781829816400,1525
1781829816402,1557
1781829816404,1596
1781829816406,1641
1781829816408,1681
1781829816410,1706
1781829816412,1705
1781829816414,1673
1781829816416,1628
1781829816418,1597
1781829816400,1589
1781829816402,1606
1781829816404,1629
1781829816406,1653
1781829816408,1677
1781829816410,1690
1781829816412,1677
1781829816414,1634
1781829816416,1582
1781829816418,1551
1781829816402,1544
1781829816404,1558
1781829816406,1574
1781829816408,1604
1781829816410,1630
1781829816412,1650
1781829816414,1655
1781829816416,1617
1781829816418,1564
1781829816420,1525
1781829816461,1525
1781829816463,1557
1781829816465,1596
1781829816467,1641
1781829816469,1674
1781829816471,1685
1781829816473,1659
1781829816475,1613
1781829816477,1566
1781829816479,1534
1781829816492,1524
1781829816494,1544
1781829816496,1572
1781829816498,1593
1781829816500,1625
1781829816502,1639
1781829816504,1639
1781829816506,1601
1781829816508,1559
1781829816510,1545
1781829816492,1558
1781829816494,1590
1781829816496,1631
1781829816498,1660
1781829816500,1683
1781829816502,1690
1781829816504,1679
1781829816506,1634
1781829816508,1578
1781829816510,1537
1781829816492,1520
1781829816494,1533
1781829816496,1549
1781829816498,1578
1781829816500,1612
1781829816502,1641
1781829816504,1658
1781829816506,1673
1781829816508,1699
1781829816510,1759
1781829816557,1853
1781829816559,1990
1781829816561,2151
1781829816563,2327
1781829816565,2497
1781829816567,2643
1781829816569,2738
1781829816571,2755
1781829816573,2713
1781829816575,2643
1781829816557,2575
1781829816559,2509
1781829816561,2432
1781829816563,2366
1781829816565,2304
1781829816567,2225
1781829816569,2137
1781829816571,2048
1781829816573,1964
1781829816575,1898
1781829816589,1864
1781829816591,1857
1781829816593,1864
1781829816595,1878
1781829816597,1882
1781829816599,1876
1781829816601,1843
1781829816603,1789
1781829816605,1734
1781829816607,1690
1781829816589,1667
1781829816591,1679
1781829816593,1693
1781829816595,1707
1781829816597,1731
1781829816599,1741
1781829816601,1722
1781829816603,1688
1781829816605,1650
1781829816607,1620
1781829816626,1605
1781829816628,1624
1781829816630,1657
1781829816632,1696
1781829816634,1739
1781829816636,1759
1781829816638,1756
1781829816640,1725
1781829816642,1677
1781829816644,1637
1781829816626,1628
1781829816628,1644
1781829816630,1679
1781829816632,1714
1781829816634,1752
1781829816636,1787
1781829816638,1792
1781829816640,1762
1781829816642,1716
1781829816644,1688
1781829816684,1685
1781829816686,1707
1781829816688,1748
1781829816690,1796
1781829816692,1842
1781829816694,1871
1781829816696,1872
1781829816698,1837
1781829816700,1794
1781829816702,1764
1781829816684,1762
1781829816686,1783
1781829816688,1820
1781829816690,1857
1781829816692,1888
1781829816694,1912
1781829816696,1926
1781829816698,1907
1781829816700,1882
1781829816702,1861
1781829816684,1859
1781829816686,1888
1781829816688,1936
1781829816690,1970
1781829816692,1986
1781829816694,2004
1781829816696,2012
1781829816698,1998
1781829816700,1958
1781829816702,1933
1781829816716,1944
1781829816718,1983
1781829816720,2018
1781829816722,2062
1781829816724,2104
1781829816726,2135
1781829816728,2135
1781829816730,2109
1781829816732,2074
1781829816734,2050
1781829816716,2049
1781829816718,2069
1781829816720,2088
1781829816722,2121
1781829816724,2155
1781829816726,2176
1781829816728,2182
1781829816730,2152
1781829816732,2105
1781829816734,2073
1781829816780,2057
1781829816782,2069
1781829816784,2098
1781829816786,2125
1781829816788,2149
1781829816790,2159
1781829816792,2130
1781829816794,2086
1781829816796,2028
1781829816798,1978
1781829816780,1955
1781829816782,1963
1781829816784,1978
1781829816786,1997
1781829816788,2010
1781829816790,2013
1781829816792,1993
1781829816794,1947
1781829816796,1877
1781829816798,1837
1781829816814,1815
1781829816816,1815
1781829816818,1824
1781829816820,1840
1781829816822,1858
1781829816824,1869
1781829816826,1853
1781829816828,1801
1781829816830,1735
1781829816832,1694
1781829816814,1682
1781829816816,1696
1781829816818,1726
1781829816820,1767
1781829816822,1805
1781829816824,1830
1781829816826,1822
1781829816828,1775
1781829816830,1713
1781829816832,1682
1781829816850,1688
1781829816852,1714
1781829816854,1741
1781829816856,1766
1781829816858,1794
1781829816860,1814
1781829816862,1808
1781829816864,1770
1781829816866,1711
1781829816868,1670
1781829816850,1658
1781829816852,1673
1781829816854,1699
1781829816856,1732
1781829816858,1759
1781829816860,1773
1781829816862,1760
1781829816864,1733
1781829816866,1703
1781829816868,1679
1781829816850,1687
1781829816852,1723
1781829816854,1763
1781829816856,1798
1781829816858,1824
1781829816860,1837
1781829816862,1827
1781829816864,1788
1781829816866,1744
1781829816868,1718
1781829816908,1700
1781829816910,1704
1781829816912,1731
1781829816914,1775
1781829816916,1817
1781829816918,1834
1781829816920,1824
1781829816922,1788
1781829816924,1740
1781829816926,1702
1781829816908,1698
1781829816910,1720
1781829816912,1752
1781829816914,1788
1781829816916,1825
1781829816918,1852
1781829816920,1856
1781829816922,1817
1781829816924,1769
1781829816926,1741
1781829816940,1740
1781829816942,1754
1781829816944,1777
1781829816946,1808
1781829816948,1831
1781829816950,1839
1781829816952,1830
1781829816954,1788
1781829816956,1723
1781829816958,1686
1781829816940,1684
1781829816942,1720
1781829816944,1767
1781829816946,1806
1781829816948,1838
1781829816950,1861
1781829816952,1850
1781829816954,1812
1781829816956,1758
1781829816958,1708
1781829817007,1697
1781829817009,1720
1781829817011,1764
1781829817013,1807
1781829817015,1837
1781829817017,1849
1781829817019,1844
1781829817021,1813
1781829817023,1765
1781829817025,1725
1781829817007,1708
1781829817009,1719
1781829817011,1752
1781829817013,1794
1781829817015,1833
1781829817017,1858
1781829817019,1855
1781829817021,1817
1781829817023,1773
1781829817025,1746
1781829817040,1749
1781829817042,1773
1781829817044,1806
1781829817046,1839
1781829817048,1874
1781829817050,1896
1781829817052,1900
1781829817054,1869
1781829817056,1825
1781829817058,1810
1781829817040,1806
1781829817042,1827
1781829817044,1858
1781829817046,1893
1781829817048,1916
1781829817050,1943
1781829817052,1954
1781829817054,1931
1781829817056,1889
1781829817058,1855
1781829817040,1855
1781829817042,1887
1781829817044,1931
1781829817046,1967
1781829817048,1995
1781829817050,2009
1781829817052,2012
1781829817054,1979
1781829817056,1934
1781829817058,1888
1781829817075,1876
1781829817077,1891
1781829817079,1908
1781829817081,1929
1781829817083,1948
1781829817085,1963
1781829817087,1965
1781829817089,1921
1781829817091,1864
1781829817093,1809
1781829817075,1788
1781829817077,1810
1781829817079,1844
1781829817081,1878
1781829817083,1901
1781829817085,1907
1781829817087,1902
1781829817089,1876
1781829817091,1838
1781829817093,1810
1781829817136,1793
1781829817138,1795
1781829817140,1830
1781829817142,1868
1781829817144,1896
1781829817146,1911
1781829817148,1902
1781829817150,1865
1781829817152,1809
1781829817154,1772
1781829817136,1769
1781829817138,1789
1781829817140,1823
1781829817142,1857
1781829817144,1888
1781829817146,1911
1781829817148,1897
1781829817150,1852
1781829817152,1802
1781829817154,1772
1781829817165,1766
1781829817167,1782
1781829817169,1807
1781829817171,1839
1781829817173,1872
1781829817175,1888
1781829817177,1883
1781829817179,1839
1781829817181,1776
1781829817183,1725
1781829817165,1697
1781829817167,1704
1781829817169,1718
1781829817171,1741
1781829817173,1777
1781829817175,1806
1781829817177,1815
1781829817179,1808
1781829817181,1791
1781829817183,1813
1781829817229,1882
1781829817231,2004
1781829817233,2150
1781829817235,2298
1781829817237,2462
1781829817239,2618
1781829817241,2766
1781829817243,2863
1781829817245,2901
1781829817247,2895
1781829817229,2879
1781829817231,2855
1781829817233,2796
1781829817235,2734
1781829817237,2665
1781829817239,2579
1781829817241,2473
1781829817243,2347
1781829817245,2236
1781829817247,2149
1781829817229,2100
1781829817231,2084
1781829817233,2077
1781829817235,2081
1781829817237,2086
1781829817239,2075
1781829817241,2042
1781829817243,1987
1781829817245,1926
1781829817247,1883
1781829817260,1878
1781829817262,1891
1781829817264,1917
1781829817266,1940
1781829817268,1967
1781829817270,1982
1781829817272,1975
1781829817274,1939
1781829817276,1892
1781829817278,1847
1781829817260,1827
1781829817262,1846
1781829817264,1874
1781829817266,1906
1781829817268,1945
1781829817270,1981
1781829817272,1985
1781829817274,1962
1781829817276,1910
1781829817278,1870
1781829817324,1858
1781829817326,1873
1781829817328,1909
1781829817330,1960
1781829817332,2007
1781829817334,2032
1781829817336,2033
1781829817338,1999
1781829817340,1953
1781829817342,1917
1781829817324,1906
1781829817326,1920
1781829817328,1948
1781829817330,1988
1781829817332,2019
1781829817334,2040
1781829817336,2048
1781829817338,2020
1781829817340,1971
1781829817342,1930
1781829817356,1925
1781829817358,1956
1781829817360,2006
1781829817362,2060
1781829817364,2107
1781829817366,2125
1781829817368,2107
1781829817370,2071
1781829817372,2024
1781829817374,1997
1781829817356,1994
1781829817358,2026
1781829817360,2070
1781829817362,2111
1781829817364,2149
1781829817366,2182
1781829817368,2194
1781829817370,2176
1781829817372,2147
1781829817374,2121
1781829817391,2121
1781829817393,2148
1781829817395,2177
1781829817397,2210
1781829817399,2237
1781829817401,2254
1781829817403,2254
1781829817405,2233
1781829817407,2189
1781829817409,2160
1781829817391,2158
1781829817393,2177
1781829817395,2205
1781829817397,2241
1781829817399,2275
1781829817401,2297
1781829817403,2288
1781829817405,2248
1781829817407,2202
1781829817409,2174
1781829817391,2165
1781829817393,2182
1781829817395,2209
1781829817397,2241
1781829817399,2273
1781829817401,2282
1781829817403,2261
1781829817405,2218
1781829817407,2161
1781829817409,2115
1781829817457,2099
1781829817459,2103
1781829817461,2119
1781829817463,2141
1781829817465,2146
1781829817467,2154
1781829817469,2138
1781829817471,2092
1781829817473,2023
1781829817475,1977
1781829817457,1960
1781829817459,1972
1781829817461,1996
1781829817463,2026
1781829817465,2051
1781829817467,2048
1781829817469,2026
1781829817471,1975
1781829817473,1911
1781829817475,1861
1781829817485,1850
1781829817487,1856
1781829817489,1870
1781829817491,1896
1781829817493,1929
1781829817495,1939
1781829817497,1927
1781829817499,1886
1781829817501,1831
1781829817503,1782
1781829817485,1753
1781829817487,1761
1781829817489,1788
1781829817491,1832
1781829817493,1869
1781829817495,1885
1781829817497,1876
1781829817499,1825
1781829817501,1759
1781829817503,1721
1781829817549,1721
1781829817551,1747
1781829817553,1784
1781829817555,1826
1781829817557,1852
1781829817559,1871
1781829817561,1868
1781829817563,1828
1781829817565,1768
1781829817567,1748
1781829817549,1741
1781829817551,1759
1781829817553,1785
1781829817555,1815
1781829817557,1843
1781829817559,1876
1781829817561,1882
1781829817563,1847
1781829817565,1790
1781829817567,1754
1781829817580,1748
1781829817582,1766
1781829817584,1796
1781829817586,1817
1781829817588,1841
1781829817590,1854
1781829817592,1846
1781829817594,1818
1781829817596,1776
1781829817598,1744
1781829817580,1742
1781829817582,1770
1781829817584,1812
1781829817586,1859
1781829817588,1900
1781829817590,1917
1781829817592,1907
1781829817594,1867
1781829817596,1817
1781829817598,1781
1781829817580,1765
1781829817582,1782
1781829817584,1816
1781829817586,1876
1781829817588,1912
1781829817590,1938
1781829817592,1929
1781829817594,1888
1781829817596,1831
1781829817598,1784
1781829817617,1767
1781829817619,1778
1781829817621,1809
1781829817623,1839
1781829817625,1868
1781829817627,1883
1781829817629,1886
1781829817631,1864
1781829817633,1826
1781829817635,1792
1781829817617,1774
1781829817619,1782
1781829817621,1822
1781829817623,1853
1781829817625,1889
1781829817627,1908
1781829817629,1906
1781829817631,1870
1781829817633,1818
1781829817635,1771
1781829817676,1757
1781829817678,1782
1781829817680,1829
1781829817682,1877
1781829817684,1917
1781829817686,1943
1781829817688,1938
1781829817690,1898
1781829817692,1846
1781829817694,1800
1781829817676,1787
1781829817678,1809
1781829817680,1839
1781829817682,1876
1781829817684,1903
1781829817686,1925
1781829817688,1930
1781829817690,1900
1781829817692,1860
1781829817694,1829
1781829817709,1824
1781829817711,1845
1781829817713,1876
1781829817715,1909
1781829817717,1944
1781829817719,1962
1781829817721,1958
1781829817723,1915
1781829817725,1868
1781829817727,1830
1781829817709,1816
1781829817711,1838
1781829817713,1879
1781829817715,1926
1781829817717,1968
1781829817719,1996
1781829817721,2005
1781829817723,1965
1781829817725,1900
1781829817727,1853
1781829817769,1845
1781829817771,1882
1781829817773,1930
1781829817775,1964
1781829817777,1990
1781829817779,2016
1781829817781,2020
1781829817783,1999
1781829817785,1954
1781829817787,1908
1781829817769,1885
1781829817771,1905
1781829817773,1942
1781829817775,1986
1781829817777,2030
1781829817779,2044
1781829817781,2047
1781829817783,2024
1781829817785,1983
1781829817787,1944
1781829817769,1930
1781829817771,1942
1781829817773,1974
1781829817775,2003
1781829817777,2030
1781829817779,2044
1781829817781,2034
1781829817783,2008
1781829817785,1958
1781829817787,1912
1781829817798,1905
1781829817800,1927
1781829817802,1948
1781829817804,1974
1781829817806,1997
1781829817808,1989
1781829817810,1969
1781829817812,1933
1781829817814,1891
1781829817816,1854
1781829817798,1844
1781829817800,1861
1781829817802,1892
1781829817804,1914
1781829817806,1943
1781829817808,1964
1781829817810,1966
1781829817812,1940
1781829817814,1895
1781829817816,1858
1781829817857,1845
1781829817859,1862
1781829817861,1895
1781829817863,1929
1781829817865,1964
1781829817867,1970
1781829817869,1967
1781829817871,1942
1781829817873,1890
1781829817875,1841
1781829817857,1829
1781829817859,1841
1781829817861,1872
1781829817863,1910
1781829817865,1943
1781829817867,1965
1781829817869,1976
1781829817871,1956
1781829817873,1896
1781829817875,1848
1781829817912,1819
1781829817914,1820
1781829817916,1835
1781829817918,1860
1781829817920,1897
1781829817922,1935
1781829817924,1953
1781829817926,1946
1781829817928,1932
1781829817930,1944
1781829817912,2003
1781829817914,2112
1781829817916,2249
1781829817918,2412
1781829817920,2593
1781829817922,2767
1781829817924,2908
1781829817926,3004
1781829817928,3028
1781829817930,3022
1781829817912,3008
1781829817914,2979
1781829817916,2937
1781829817918,2866
1781829817920,2782
1781829817922,2690
1781829817924,2586
1781829817926,2464
1781829817928,2336
1781829817930,2222
1781829817974,2143
1781829817976,2111
1781829817978,2097
1781829817980,2102
1781829817982,2112
1781829817984,2109
1781829817986,2083
1781829817988,2033
1781829817990,1974
1781829817992,1932
1781829817974,1912
1781829817976,1914
1781829817978,1946
1781829817980,1975
1781829817982,1999
1781829817984,2018
1781829817986,2017
1781829817988,1980
1781829817990,1921
1781829817992,1891
1781829818036,1876
1781829818038,1890
1781829818040,1927
1781829818042,1965
1781829818044,1998
1781829818046,2025
1781829818048,2025
1781829818050,1985
1781829818052,1936
1781829818054,1900
1781829818036,1895
1781829818038,1913
1781829818040,1942
1781829818042,1968
1781829818044,2004
1781829818046,2039
1781829818048,2042
1781829818050,2017
1781829818052,1965
1781829818054,1925
1781829818037,1909
1781829818039,1935
1781829818041,1973
1781829818043,2018
1781829818045,2043
1781829818047,2056
1781829818049,2048
1781829818051,2001
1781829818053,1952
1781829818055,1918
1781829818037,1908
1781829818039,1936
1781829818041,1977
1781829818043,2020
1781829818045,2055
1781829818047,2069
1781829818049,2074
1781829818051,2051
1781829818053,1998
1781829818055,1973
1781829818094,1964
1781829818096,1983
1781829818098,2018
1781829818100,2061
1781829818102,2121
1781829818104,2166
1781829818106,2175
1781829818108,2153
1781829818110,2118
1781829818112,2088
1781829818094,2081
1781829818096,2100
1781829818098,2143
1781829818100,2182
1781829818102,2223
1781829818104,2262
1781829818106,2276
1781829818108,2260
1781829818110,2204
1781829818112,2162
1781829818094,2150
1781829818096,2168
1781829818098,2214
1781829818100,2256
1781829818102,2289
1781829818104,2299
1781829818106,2287
1781829818108,2254
1781829818110,2201
1781829818112,2162
1781829818124,2143
1781829818126,2156
1781829818128,2189
1781829818130,2230
1781829818132,2269
1781829818134,2285
1781829818136,2285
1781829818138,2242
1781829818140,2195
1781829818142,2146
1781829818124,2111
1781829818126,2099
1781829818128,2126
1781829818130,2145
1781829818132,2167
1781829818134,2187
1781829818136,2187
1781829818138,2147
1781829818140,2088
1781829818142,2030
1781829818186,2000
1781829818188,2014
1781829818190,2042
1781829818192,2064
1781829818194,2077
1781829818196,2081
1781829818198,2068
1781829818200,2018
1781829818202,1954
1781829818204,1900
1781829818186,1873
1781829818188,1882
1781829818190,1901
1781829818192,1922
1781829818194,1951
1781829818196,1965
1781829818198,1964
1781829818200,1939
1781829818202,1892
1781829818204,1855
1781829818219,1835
1781829818221,1841
1781829818223,1855
1781829818225,1871
1781829818227,1889
1781829818229,1904
1781829818231,1892
1781829818233,1855
1781829818235,1809
1781829818237,1773
1781829818219,1767
1781829818221,1787
1781829818223,1818
1781829818225,1860
1781829818227,1909
1781829818229,1937
1781829818231,1935
1781829818233,1899
1781829818235,1845
1781829818237,1795
1781829818246,1764
1781829818248,1785
1781829818250,1830
1781829818252,1872
1781829818254,1903
1781829818256,1916
1781829818258,1909
1781829818260,1876
1781829818262,1820
1781829818264,1770
1781829818246,1751
1781829818248,1771
1781829818250,1818
1781829818252,1875
1781829818254,1912
1781829818256,1922
1781829818258,1924
1781829818260,1895
1781829818262,1847
1781829818264,1802
1781829818246,1788
1781829818248,1807
1781829818250,1836
1781829818252,1875
1781829818254,1896
1781829818256,1909
1781829818258,1910
1781829818260,1878
1781829818262,1833
1781829818264,1802
1781829818300,1788
1781829818302,1798
1781829818304,1831
1781829818306,1869
1781829818308,1915
1781829818310,1947
1781829818312,1942
1781829818314,1905
1781829818316,1856
1781829818318,1815
1781829818300,1807
1781829818302,1827
1781829818304,1864
1781829818306,1906
1781829818308,1943
1781829818310,1955
1781829818312,1948
1781829818314,1914
1781829818316,1877
1781829818318,1839
1781829818353,1824
1781829818355,1831
1781829818357,1856
1781829818359,1889
1781829818361,1917
1781829818363,1937
1781829818365,1938
1781829818367,1910
1781829818369,1867
1781829818371,1828
1781829818353,1809
1781829818355,1819
1781829818357,1845
1781829818359,1886
1781829818361,1932
1781829818363,1965
1781829818365,1969
1781829818367,1935
1781829818369,1887
1781829818371,1850
1781829818407,1832
1781829818409,1847
1781829818411,1877
1781829818413,1915
1781829818415,1950
1781829818417,1967
1781829818419,1958
1781829818421,1927
1781829818423,1875
1781829818425,1844
1781829818407,1839
1781829818409,1866
1781829818411,1902
1781829818413,1944
1781829818415,1992
1781829818417,2020
1781829818419,2007
1781829818421,1967
1781829818423,1915
1781829818425,1882
1781829818433,1875
1781829818435,1885
1781829818437,1916
1781829818439,1960
1781829818441,1988
1781829818443,2011
1781829818445,2019
1781829818447,2005
1781829818449,1968
1781829818451,1942
1781829818433,1939
1781829818435,1950
1781829818437,1985
1781829818439,2017
1781829818441,2049
1781829818443,2082
1781829818445,2088
1781829818447,2069
1781829818449,2025
1781829818451,1987
1781829818433,1969
1781829818435,1977
1781829818437,2001
1781829818439,2025
1781829818441,2048
1781829818443,2046
1781829818445,2018
1781829818447,1966
1781829818449,1909
1781829818451,1855
1781829818486,1833
1781829818488,1833
1781829818490,1852
1781829818492,1884
1781829818494,1922
1781829818496,1951
1781829818498,1951
1781829818500,1918
1781829818502,1872
1781829818504,1835
1781829818486,1817
1781829818488,1820
1781829818490,1843
1781829818492,1874
1781829818494,1902
1781829818496,1921
1781829818498,1924
1781829818500,1898
1781829818502,1849
1781829818504,1807
1781829818515,1791
1781829818517,1801
1781829818519,1826
1781829818521,1868
1781829818523,1911
1781829818525,1936
1781829818527,1934
1781829818529,1903
1781829818531,1840
1781829818533,1775
1781829818515,1743
1781829818517,1748
1781829818519,1769
1781829818521,1798
1781829818523,1821
1781829818525,1843
1781829818527,1851
1781829818529,1824
1781829818531,1778
1781829818533,1731
1781829818578,1691
1781829818580,1695
1781829818582,1720
1781829818584,1746
1781829818586,1778
1781829818588,1796
1781829818590,1796
1781829818592,1764
1781829818594,1720
1781829818596,1689
1781829818578,1701
1781829818580,1768
1781829818582,1867
1781829818584,1993
1781829818586,2142
1781829818588,2288
1781829818590,2428
1781829818592,2533
1781829818594,2614
1781829818596,2681
1781829818610,2746
1781829818612,2802
1781829818614,2835
1781829818616,2840
1781829818618,2802
1781829818620,2725
1781829818622,2602
1781829818624,2446
1781829818626,2281
1781829818628,2133
1781829818610,2040
1781829818612,1994
1781829818614,1974
1781829818616,1965
1781829818618,1969
1781829818620,1971
1781829818622,1963
1781829818624,1921
1781829818626,1864
1781829818628,1820
1781829818610,1799
1781829818612,1814
1781829818614,1843
1781829818616,1876
1781829818618,1909
1781829818620,1944
1781829818622,1962
1781829818624,1938
1781829818626,1882
1781829818628,1841
1781829818674,1831
1781829818676,1848
1781829818678,1878
1781829818680,1919
1781829818682,1961
1781829818684,1988
1781829818686,1988
1781829818688,1950
1781829818690,1900
1781829818692,1858
1781829818674,1847
1781829818676,1874
1781829818678,1909
1781829818680,1950
1781829818682,1996
1781829818684,2030
1781829818686,2038
1781829818688,2003
1781829818690,1953
1781829818692,1912
1781829818706,1901
1781829818708,1936
1781829818710,1973
1781829818712,2012
1781829818714,2050
1781829818716,2076
1781829818718,2090
1781829818720,2080
1781829818722,2045
1781829818724,1992
1781829818706,1966
1781829818708,1981
1781829818710,2018
1781829818712,2073
1781829818714,2121
1781829818716,2149
1781829818718,2154
1781829818720,2127
1781829818722,2081
1781829818724,2043
1781829818740,2035
1781829818742,2049
1781829818744,2089
1781829818746,2136
1781829818748,2181
1781829818750,2211
1781829818752,2220
1781829818754,2197
1781829818756,2160
1781829818758,2129
1781829818740,2129
1781829818742,2154
1781829818744,2195
1781829818746,2242
1781829818748,2286
1781829818750,2313
1781829818752,2324
1781829818754,2307
1781829818756,2259
1781829818758,2213
1781829818807,2193
1781829818809,2209
1781829818811,2247
1781829818813,2286
1781829818815,2330
1781829818817,2364
1781829818819,2369
1781829818821,2352
1781829818823,2311
1781829818825,2258
1781829818807,2231
1781829818809,2235
1781829818811,2267
1781829818813,2303
1781829818815,2330
1781829818817,2350
1781829818819,2352
1781829818821,2311
1781829818823,2268
1781829818825,2219
1781829818807,2192
1781829818809,2198
1781829818811,2211
1781829818813,2241
1781829818815,2266
1781829818817,2277
1781829818819,2266
1781829818821,2219
1781829818823,2150
1781829818825,2091
1781829818869,2067
1781829818871,2063
1781829818873,2082
1781829818875,2109
1781829818877,2128
1781829818879,2139
1781829818881,2133
1781829818883,2085
1781829818885,2014
1781829818887,1958
1781829818898,1930
1781829818900,1931
1781829818902,1946
1781829818904,1970
1781829818906,1989
1781829818908,1999
1781829818910,1979
1781829818912,1927
1781829818914,1873
1781829818916,1837
1781829818898,1819
1781829818900,1827
1781829818902,1856
1781829818904,1881
1781829818906,1905
1781829818908,1925
1781829818910,1922
1781829818912,1881
1781829818914,1821
1781829818916,1766
1781829818898,1735
1781829818900,1751
1781829818902,1793
1781829818904,1830
1781829818906,1866
1781829818908,1889
1781829818910,1892
1781829818912,1860
1781829818914,1808
1781829818916,1757
1781829818957,1727
1781829818959,1734
1781829818961,1761
1781829818963,1805
1781829818965,1845
1781829818967,1878
1781829818969,1883
1781829818971,1861
1781829818973,1820
1781829818975,1775
1781829818957,1740
1781829818959,1737
1781829818961,1762
1781829818963,1796
1781829818965,1833
1781829818967,1867
1781829818969,1881
1781829818971,1857
1781829818973,1802
1781829818975,1753
1781829818990,1733
1781829818992,1755
1781829818994,1793
1781829818996,1830
1781829818998,1859
1781829819000,1884
1781829819002,1895
1781829819004,1865
1781829819006,1815
1781829819008,1777
1781829818990,1762
1781829818992,1772
1781829818994,1809
1781829818996,1848
1781829818998,1890
1781829819000,1913
1781829819002,1915
1781829819004,1894
1781829819006,1849
1781829819008,1818
1781829818990,1798
1781829818992,1813
1781829818994,1845
1781829818996,1872
1781829818998,1899
1781829819000,1923
1781829819002,1923
1781829819004,1892
1781829819006,1846
1781829819008,1799
1781829819024,1773
1781829819026,1766
1781829819028,1787
1781829819030,1828
1781829819032,1863
1781829819034,1891
1781829819036,1901
1781829819038,1883
1781829819040,1827
1781829819042,1776
1781829819055,1753
1781829819057,1767
1781829819059,1816
1781829819061,1868
1781829819063,1916
1781829819065,1947
1781829819067,1948
1781829819069,1915
1781829819071,1852
1781829819073,1807
1781829819055,1780
1781829819057,1788
1781829819059,1820
1781829819061,1866
1781829819063,1915
1781829819065,1946
1781829819067,1954
1781829819069,1938
1781829819071,1894
1781829819073,1857
1781829819055,1837
1781829819057,1853
1781829819059,1891
1781829819061,1936
1781829819063,1988
1781829819065,2029
1781829819067,2052
1781829819069,2033
1781829819071,1995
1781829819073,1966
1781829819115,1950
1781829819117,1955
1781829819119,1980
1781829819121,2004
1781829819123,2038
1781829819125,2073
1781829819127,2089
1781829819129,2061
1781829819131,2020
1781829819133,1976
1781829819115,1959
1781829819117,1970
1781829819119,2011
1781829819121,2060
1781829819123,2084
1781829819125,2090
1781829819127,2084
1781829819129,2043
1781829819131,1988
1781829819133,1938
1781829819148,1911
1781829819150,1914
1781829819152,1941
1781829819154,1973
1781829819156,2004
1781829819158,2028
1781829819160,2028
1781829819162,1999
1781829819164,1954
1781829819166,1897
1781829819148,1876
1781829819150,1887
1781829819152,1908
1781829819154,1935
1781829819156,1952
1781829819158,1965
1781829819160,1965
1781829819162,1936
1781829819164,1897
1781829819166,1865
1781829819212,1850
1781829819214,1859
1781829819216,1892
1781829819218,1923
1781829819220,1952
1781829819222,1965
1781829819224,1963
1781829819226,1933
1781829819228,1877
1781829819230,1828
1781829819212,1808
1781829819214,1818
1781829819216,1847
1781829819218,1884
1781829819220,1917
1781829819222,1933
1781829819224,1932
1781829819226,1891
1781829819228,1837
1781829819230,1793
1781829819243,1769
1781829819245,1772
1781829819247,1789
1781829819249,1816
1781829819251,1827
1781829819253,1830
1781829819255,1829
1781829819257,1801
1781829819259,1757
1781829819261,1711
1781829819243,1709
1781829819245,1777
1781829819247,1877
1781829819249,2009
1781829819251,2150
1781829819253,2293
1781829819255,2443
1781829819257,2567
1781829819259,2666
1781829819261,2745
1781829819243,2798
1781829819245,2845
1781829819247,2859
1781829819249,2845
1781829819251,2803
1781829819253,2728
1781829819255,2622
1781829819257,2497
1781829819259,2358
1781829819261,2234
1781829819309,2145
1781829819311,2107
1781829819313,2079
1781829819315,2065
1781829819317,2059
1781829819319,2052
1781829819321,2031
1781829819323,1982
1781829819325,1904
1781829819327,1828
1781829819309,1768
1781829819311,1762
1781829819313,1780
1781829819315,1811
1781829819317,1837
1781829819319,1866
1781829819321,1878
1781829819323,1847
1781829819325,1790
1781829819327,1735
1781829819339,1707
1781829819341,1710
1781829819343,1737
1781829819345,1765
1781829819347,1801
1781829819349,1832
1781829819351,1847
1781829819353,1825
1781829819355,1785
1781829819357,1743
1781829819339,1727
1781829819341,1742
1781829819343,1773
1781829819345,1820
1781829819347,1860
1781829819349,1893
1781829819351,1909
1781829819353,1900
1781829819355,1855
1781829819357,1815
1781829819408,1791
1781829819410,1792
1781829819412,1819
1781829819414,1860
1781829819416,1906
1781829819418,1945
1781829819420,1962
1781829819422,1943
1781829819424,1883
1781829819426,1843
1781829819408,1827
1781829819410,1839
1781829819412,1879
1781829819414,1933
1781829819416,1975
1781829819418,2008
1781829819420,2022
1781829819422,1997
1781829819424,1947
1781829819426,1905
1781829819408,1892
1781829819410,1914
1781829819412,1956
1781829819414,2010
1781829819416,2055
1781829819418,2089
1781829819420,2113
1781829819422,2093
1781829819424,2038
1781829819426,2003
1781829819478,2003
1781829819480,2023
1781829819482,2057
1781829819484,2087
1781829819486,2120
1781829819488,2156
1781829819490,2177
1781829819492,2176
1781829819494,2148
1781829819496,2110
1781829819478,2093
1781829819480,2110
1781829819482,2159
1781829819484,2201
1781829819486,2239
1781829819488,2264
1781829819490,2269
1781829819492,2249
1781829819494,2200
1781829819496,2149
1781829819478,2124
1781829819480,2118
1781829819482,2146
1781829819484,2183
1781829819486,2220
1781829819488,2254
1781829819490,2281
1781829819492,2259
1781829819494,2202
1781829819496,2144
1781829819478,2108
1781829819480,2122
1781829819482,2138
1781829819484,2156
1781829819486,2184
1781829819488,2197
1781829819490,2189
1781829819492,2146
1781829819494,2082
1781829819496,2021
1781829819513,1980
1781829819515,1973
1781829819517,1985
1781829819519,2006
1781829819521,2028
1781829819523,2044
1781829819525,2048
1781829819527,2018
1781829819529,1962
1781829819531,1886
1781829819513,1837
1781829819515,1829
1781829819517,1838
1781829819519,1856
1781829819521,1881
1781829819523,1893
1781829819525,1881
1781829819527,1845
1781829819529,1801
1781829819531,1765
1781829819591,1745
1781829819593,1741
1781829819595,1756
1781829819597,1778
1781829819599,1800
1781829819601,1813
1781829819603,1822
1781829819605,1796
1781829819607,1751
1781829819609,1700
1781829819591,1674
1781829819593,1686
1781829819595,1721
1781829819597,1761
1781829819599,1806
1781829819601,1834
1781829819603,1823
1781829819605,1778
1781829819607,1720
1781829819609,1667
1781829819591,1639
1781829819593,1656
1781829819595,1694
1781829819597,1735
1781829819599,1760
1781829819601,1783
1781829819603,1793
1781829819605,1781
1781829819607,1734
1781829819609,1681
1781829819627,1654
1781829819629,1665
1781829819631,1688
1781829819633,1723
1781829819635,1762
1781829819637,1795
1781829819639,1811
1781829819641,1783
1781829819643,1739
1781829819645,1691
1781829819627,1658
1781829819629,1661
1781829819631,1687
1781829819633,1714
1781829819635,1751
1781829819637,1778
1781829819639,1797
1781829819641,1773
1781829819643,1721
1781829819645,1664
1781829819704,1640
1781829819706,1651
1781829819708,1684
1781829819710,1713
1781829819712,1738
1781829819714,1769
1781829819716,1791
1781829819718,1782
1781829819720,1747
1781829819722,1703
1781829819704,1681
1781829819706,1699
1781829819708,1736
1781829819710,1777
1781829819712,1818
1781829819714,1851
1781829819716,1866
1781829819718,1848
1781829819720,1798
1781829819722,1762
1781829819704,1732
1781829819706,1732
1781829819708,1743
1781829819710,1774
1781829819712,1806
1781829819714,1836
1781829819716,1855
1781829819718,1835
1781829819720,1792
1781829819722,1747
1781829819704,1722
1781829819706,1733
1781829819708,1763
1781829819710,1792
1781829819712,1826
1781829819714,1843
1781829819716,1849
1781829819718,1831
1781829819720,1784
1781829819722,1743
1781829819779,1712
1781829819781,1716
1781829819783,1754
1781829819785,1797
1781829819787,1828
1781829819789,1851
1781829819791,1867
1781829819793,1860
1781829819795,1821
1781829819797,1776
1781829819779,1765
1781829819781,1775
1781829819783,1807
1781829819785,1853
1781829819787,1890
1781829819789,1914
1781829819791,1927
1781829819793,1909
1781829819795,1868
1781829819797,1828
1781829819779,1817
1781829819781,1829
1781829819783,1872
1781829819785,1920
1781829819787,1969
1781829819789,2007
1781829819791,2022
1781829819793,1999
1781829819795,1943
1781829819797,1899
1781829819779,1883
1781829819781,1896
1781829819783,1934
1781829819785,1978
1781829819787,2020
1781829819789,2056
1781829819791,2061
1781829819793,2018
1781829819795,1953
1781829819797,1895
1781829819779,1862
1781829819781,1857
1781829819783,1875
1781829819785,1897
1781829819787,1928
1781829819789,1959
1781829819791,1967
1781829819793,1949
1781829819795,1899
1781829819797,1855
1781829819855,1836
1781829819857,1844
1781829819859,1868
1781829819861,1890
1781829819863,1917
1781829819865,1939
1781829819867,1938
1781829819869,1909
1781829819871,1859
1781829819873,1806
1781829819855,1769
1781829819857,1766
1781829819859,1794
1781829819861,1830
1781829819863,1874
1781829819865,1903
1781829819867,1918
1781829819869,1904
1781829819871,1854
1781829819873,1807
1781829819891,1778
1781829819893,1777
1781829819895,1804
1781829819897,1843
1781829819899,1865
1781829819901,1892
1781829819903,1895
1781829819905,1879
1781829819907,1846
1781829819909,1810
1781829819891,1792
1781829819893,1814
1781829819895,1843
1781829819897,1871
1781829819899,1915
1781829819901,1950
1781829819903,1952
1781829819905,1920
1781829819907,1846
1781829819909,1770
1781829819929,1721
1781829819931,1709
1781829819933,1715
1781829819935,1751
1781829819937,1800
1781829819939,1857
1781829819941,1908
1781829819943,1953
1781829819945,1990
1781829819947,2031
1781829819929,2110
1781829819931,2236
1781829819933,2401
1781829819935,2582
1781829819937,2772
1781829819939,2938
1781829819941,3051
1781829819943,3103
1781829819945,3061
1781829819947,2955
1781829819929,2849
1781829819931,2753
1781829819933,2680
1781829819935,2614
1781829819937,2547
1781829819939,2497
1781829819941,2444
1781829819943,2369
1781829819945,2272
1781829819947,2172
1781829820009,2102
1781829820011,2066
1781829820013,2061
1781829820015,2068
1781829820017,2079
1781829820019,2094
1781829820021,2081
1781829820023,2046
1781829820025,1985
1781829820027,1921
1781829820009,1875
1781829820011,1859
1781829820013,1869
1781829820015,1891
1781829820017,1924
1781829820019,1954
1781829820021,1967
1781829820023,1941
1781829820025,1899
1781829820027,1854
1781829820009,1823
1781829820011,1825
1781829820013,1847
1781829820015,1874
1781829820017,1897
1781829820019,1929
1781829820021,1943
1781829820023,1930
1781829820025,1888
1781829820027,1842
1781829820009,1813
1781829820011,1811
1781829820013,1846
1781829820015,1894
1781829820017,1946
1781829820019,1994
1781829820021,2008
1781829820023,1990
1781829820025,1950
1781829820027,1910
1781829820051,1885
1781829820053,1886
1781829820055,1917
1781829820057,1959
1781829820059,2008
1781829820061,2051
1781829820063,2072
1781829820065,2043
1781829820067,1989
1781829820069,1941
1781829820051,1914
1781829820053,1928
1781829820055,1969
1781829820057,2018
1781829820059,2071
1781829820061,2117
1781829820063,2130
1781829820065,2111
1781829820067,2083
1781829820069,2050
1781829820126,2032
1781829820128,2036
1781829820130,2072
1781829820132,2119
1781829820134,2165
1781829820136,2207
1781829820138,2236
1781829820140,2236
1781829820142,2205
1781829820144,2160
1781829820126,2136
1781829820128,2138
1781829820130,2166
1781829820132,2205
1781829820134,2255
1781829820136,2305
1781829820138,2326
1781829820140,2316
1781829820142,2279
1781829820144,2235
1781829820126,2202
1781829820128,2199
1781829820130,2224
1781829820132,2265
1781829820134,2304
1781829820136,2336
1781829820138,2352
1781829820140,2334
1781829820142,2286
1781829820144,2228
1781829820167,2205
1781829820169,2201
1781829820171,2221
1781829820173,2256
1781829820175,2291
1781829820177,2319
1781829820179,2330
1781829820181,2310
1781829820183,2257
1781829820185,2198
1781829820167,2163
1781829820169,2154
1781829820171,2171
1781829820173,2197
1781829820175,2225
1781829820177,2238
1781829820179,2231
1781829820181,2189
1781829820183,2128
1781829820185,2063
1781829820208,2009
1781829820210,1998
1781829820212,2005
1781829820214,2026
1781829820216,2049
1781829820218,2069
1781829820220,2080
1781829820222,2068
1781829820224,2014
1781829820226,1945
1781829820208,1905
1781829820210,1902
1781829820212,1935
1781829820214,1964
1781829820216,1992
1781829820218,2016
1781829820220,2037
1781829820222,2025
1781829820224,1979
1781829820226,1918
1781829820246,1872
1781829820248,1864
1781829820250,1887
1781829820252,1927
1781829820254,1966
1781829820256,1993
1781829820258,1992
1781829820260,1967
1781829820262,1917
1781829820264,1866
1781829820246,1850
1781829820248,1858
1781829820250,1883
1781829820252,1926
1781829820254,1960
1781829820256,1991
1781829820258,2001
1781829820260,1981
1781829820262,1941
1781829820264,1892
1781829820286,1864
1781829820288,1868
1781829820290,1899
1781829820292,1935
1781829820294,1966
1781829820296,2009
1781829820298,2037
1781829820300,2028
1781829820302,1975
1781829820304,1920
1781829820286,1883
1781829820288,1880
1781829820290,1915
1781829820292,1952
1781829820294,1981
1781829820296,2014
1781829820298,2028
1781829820300,2019
1781829820302,1976
1781829820304,1920
1781829820286,1886
1781829820288,1894
1781829820290,1916
1781829820292,1958
1781829820294,1996
1781829820296,2022
1781829820298,2038
1781829820300,2028
1781829820302,1976
1781829820304,1923
1781829820321,1889
1781829820323,1881
1781829820325,1900
1781829820327,1937
1781829820329,1980
1781829820331,2018
1781829820333,2035
1781829820335,2017
1781829820337,1964
1781829820339,1915
1781829820321,1893
1781829820323,1907
1781829820325,1943
1781829820327,1985
1781829820329,2028
1781829820331,2067
1781829820333,2094
1781829820335,2073
1781829820337,2016
1781829820339,1952
1781829820360,1902
1781829820362,1900
1781829820364,1935
1781829820366,1976
1781829820368,2011
1781829820370,2046
1781829820372,2061
1781829820374,2040
1781829820376,1987
1781829820378,1936
1781829820360,1912
1781829820362,1919
1781829820364,1944
1781829820366,1983
1781829820368,2023
1781829820370,2053
1781829820372,2073
1781829820374,2062
1781829820376,2012
1781829820378,1959
1781829820439,1923
1781829820441,1912
1781829820443,1932
1781829820445,1968
1781829820447,2016
1781829820449,2055
1781829820451,2076
1781829820453,2073
1781829820455,2038
1781829820457,1996
1781829820439,1971
1781829820441,1981
1781829820443,2018
1781829820445,2065
1781829820447,2088
1781829820449,2111
1781829820451,2109
1781829820453,2076
1781829820455,2025
1781829820457,1976
1781829820474,1953
1781829820476,1967
1781829820478,2006
1781829820480,2054
1781829820482,2095
1781829820484,2127
1781829820486,2158
1781829820488,2164
1781829820490,2137
1781829820492,2084
1781829820474,2039
1781829820476,2038
1781829820478,2073
1781829820480,2107
1781829820482,2144
1781829820484,2176
1781829820486,2187
1781829820488,2180
1781829820490,2148
1781829820492,2106
1781829820474,2079
1781829820476,2076
1781829820478,2092
1781829820480,2128
1781829820482,2153
1781829820484,2174
1781829820486,2173
1781829820488,2153
1781829820490,2103
1781829820492,2035
1781829820514,1982
1781829820516,1968
1781829820518,1980
1781829820520,2001
1781829820522,2027
1781829820524,2065
1781829820526,2085
1781829820528,2074
1781829820530,2028
1781829820532,1970
1781829820514,1925
1781829820516,1912
1781829820518,1927
1781829820520,1956
1781829820522,1989
1781829820524,2019
1781829820526,2037
1781829820528,2025
1781829820530,1983
1781829820532,1927
1781829820553,1892
1781829820555,1884
1781829820557,1896
1781829820559,1929
1781829820561,1975
1781829820563,2018
1781829820565,2039
1781829820567,2028
1781829820569,1996
1781829820571,1953
1781829820553,1912
1781829820555,1892
1781829820557,1899
1781829820559,1923
1781829820561,1952
1781829820563,1987
1781829820565,2015
1781829820567,2016
1781829820569,1986
1781829820571,1936
1781829820593,1888
1781829820595,1873
1781829820597,1884
1781829820599,1904
1781829820601,1931
1781829820603,1953
1781829820605,1964
1781829820607,1939
1781829820609,1891
1781829820611,1856
1781829820593,1844
1781829820595,1875
1781829820597,1942
1781829820599,2038
1781829820601,2156
1781829820603,2287
1781829820605,2439
1781829820607,2577
1781829820609,2678
1781829820611,2770
1781829820634,2863
1781829820636,2963
1781829820638,3050
1781829820640,3109
1781829820642,3114
1781829820644,3077
1781829820646,2985
1781829820648,2860
1781829820650,2694
1781829820652,2527
1781829820634,2389
1781829820636,2302
1781829820638,2278
1781829820640,2265
1781829820642,2245
1781829820644,2228
1781829820646,2205
1781829820648,2169
1781829820650,2112
1781829820652,2041
1781829820634,1980
1781829820636,1951
1781829820638,1963
1781829820640,1999
1781829820642,2039
1781829820644,2064
1781829820646,2065
1781829820648,2032
1781829820650,1989
1781829820652,1939
1781829820716,1888
1781829820718,1881
1781829820720,1912
1781829820722,1964
1781829820724,2011
1781829820726,2029
1781829820728,2045
1781829820730,2047
1781829820732,2014
1781829820734,1959
1781829820716,1933
1781829820718,1937
1781829820720,1960
1781829820722,1996
1781829820724,2023
1781829820726,2053
1781829820728,2065
1781829820730,2046
1781829820732,2002
1781829820734,1954
1781829820755,1919
1781829820757,1921
1781829820759,1944
1781829820761,1982
1781829820763,2023
1781829820765,2054
1781829820767,2077
1781829820769,2068
1781829820771,2034
1781829820773,1992
1781829820755,1967
1781829820757,1956
1781829820759,1977
1781829820761,2016
1781829820763,2054
1781829820765,2094
1781829820767,2123
1781829820769,2115
1781829820771,2084
1781829820773,2035
1781829820795,1997
1781829820797,1997
1781829820799,2023
1781829820801,2067
1781829820803,2114
1781829820805,2169
1781829820807,2207
1781829820809,2207
1781829820811,2170
1781829820813,2123
1781829820795,2101
1781829820797,2114
1781829820799,2146
1781829820801,2197
1781829820803,2240
1781829820805,2279
1781829820807,2299
1781829820809,2283
1781829820811,2233
1781829820813,2180
1781829820795,2139
1781829820797,2127
1781829820799,2163
1781829820801,2217
1781829820803,2265
1781829820805,2306
1781829820807,2329
1781829820809,2334
1781829820811,2294
1781829820813,2240
1781829820835,2205
1781829820837,2198
1781829820839,2221
1781829820841,2255
1781829820843,2298
1781829820845,2339
1781829820847,2352
1781829820849,2335
1781829820851,2289
1781829820853,2236
1781829820835,2196
1781829820837,2182
1781829820839,2197
1781829820841,2220
1781829820843,2245
1781829820845,2270
1781829820847,2267
1781829820849,2250
1781829820851,2207
1781829820853,2154
1781829820876,2100
1781829820878,2080
1781829820880,2081
1781829820882,2095
1781829820884,2109
1781829820886,2131
1781829820888,2146
1781829820890,2112
1781829820892,2039
1781829820894,1963
1781829820876,1906
1781829820878,1888
1781829820880,1883
1781829820882,1903
1781829820884,1936
1781829820886,1966
1781829820888,1986
1781829820890,1982
1781829820892,1947
1781829820894,1893
1781829820916,1844
1781829820918,1846
1781829820920,1875
1781829820922,1897
1781829820924,1923
1781829820926,1942
1781829820928,1950
1781829820930,1945
1781829820932,1906
1781829820934,1849
1781829820916,1807
1781829820918,1792
1781829820920,1812
1781829820922,1843
1781829820924,1880
1781829820926,1917
1781829820928,1944
1781829820930,1937
1781829820932,1891
1781829820934,1834
1781829820955,1805
1781829820957,1806
1781829820959,1822
1781829820961,1849
1781829820963,1878
1781829820965,1911
1781829820967,1924
1781829820969,1905
1781829820971,1857
1781829820973,1805
1781829820955,1772
1781829820957,1762
1781829820959,1777
1781829820961,1815
1781829820963,1864
1781829820965,1911
1781829820967,1936
1781829820969,1919
1781829820971,1864
1781829820973,1806
1781829820955,1775
1781829820957,1780
1781829820959,1815
1781829820961,1854
1781829820963,1899
1781829820965,1945
1781829820967,1971
1781829820969,1977
1781829820971,1935
1781829820973,1869
1781829820992,1826
1781829820994,1814
1781829820996,1839
1781829820998,1885
1781829821000,1937
1781829821002,1984
1781829821004,2009
1781829821006,1995
1781829821008,1950
1781829821010,1894
1781829820992,1845
1781829820994,1834
1781829820996,1858
1781829820998,1888
1781829821000,1914
1781829821002,1935
1781829821004,1947
1781829821006,1932
1781829821008,1884
1781829821010,1831
1781829821067,1788
1781829821069,1771
1781829821071,1789
1781829821073,1833
1781829821075,1878
1781829821077,1922
1781829821079,1942
1781829821081,1926
1781829821083,1880
1781829821085,1829
1781829821067,1795
1781829821069,1790
1781829821071,1799
1781829821073,1824
1781829821075,1860
1781829821077,1891
1781829821079,1915
1781829821081,1910
1781829821083,1870
1781829821085,1813
1781829821105,1776
1781829821107,1769
1781829821109,1802
1781829821111,1846
1781829821113,1888
1781829821115,1924
1781829821117,1941
1781829821119,1923
1781829821121,1885
1781829821123,1827
1781829821105,1783
1781829821107,1776
1781829821109,1789
1781829821111,1823
1781829821113,1861
1781829821115,1883
1781829821117,1889
1781829821119,1885
1781829821121,1853
1781829821123,1811
1781829821141,1778
1781829821143,1781
1781829821145,1813
1781829821147,1857
1781829821149,1897
1781829821151,1927
1781829821153,1944
1781829821155,1943
1781829821157,1904
1781829821159,1845
1781829821141,1806
1781829821143,1805
1781829821145,1831
1781829821147,1868
1781829821149,1908
1781829821151,1950
1781829821153,1991
1781829821155,1995
1781829821157,1966
1781829821159,1916
1781829821141,1878
1781829821143,1868
1781829821145,1883
1781829821147,1904
1781829821149,1939
1781829821151,1959
1781829821153,1970
1781829821155,1964
1781829821157,1934
1781829821159,1894
1781829821177,1871
1781829821179,1874
1781829821181,1886
1781829821183,1911
1781829821185,1940
1781829821187,1961
1781829821189,1967
1781829821191,1949
1781829821193,1890
1781829821195,1823
1781829821177,1769
1781829821179,1750
1781829821181,1766
1781829821183,1795
1781829821185,1832
1781829821187,1865
1781829821189,1887
1781829821191,1882
1781829821193,1837
1781829821195,1777
1781829821251,1735
1781829821253,1722
1781829821255,1741
1781829821257,1770
1781829821259,1813
1781829821261,1850
1781829821263,1856
1781829821265,1846
1781829821267,1804
1781829821269,1754
1781829821251,1708
1781829821253,1697
1781829821255,1717
1781829821257,1756
1781829821259,1795
1781829821261,1833
1781829821263,1859
1781829821265,1860
1781829821267,1826
1781829821269,1769
1781829821324,1724
1781829821326,1716
1781829821328,1738
1781829821330,1767
1781829821332,1804
1781829821334,1838
1781829821336,1856
1781829821338,1852
1781829821340,1813
1781829821342,1751
1781829821324,1694
1781829821326,1681
1781829821328,1694
1781829821330,1714
1781829821332,1746
1781829821334,1772
1781829821336,1788
1781829821338,1777
1781829821340,1754
1781829821342,1735
1781829821324,1730
1781829821326,1767
1781829821328,1859
1781829821330,1981
1781829821332,2122
1781829821334,2276
1781829821336,2409
1781829821338,2531
1781829821340,2625
1781829821342,2694
1781829821324,2756
1781829821326,2804
1781829821328,2841
1781829821330,2855
1781829821332,2843
1781829821334,2785
1781829821336,2677
1781829821338,2550
1781829821340,2385
1781829821342,2227
1781829821324,2108
1781829821326,2036
1781829821328,2002
1781829821330,1991
1781829821332,1971
1781829821334,1961
1781829821336,1966
1781829821338,1953
1781829821340,1908
1781829821342,1842
1781829821361,1788
1781829821363,1759
1781829821365,1756
1781829821367,1780
1781829821369,1812
1781829821371,1841
1781829821373,1862
1781829821375,1858
1781829821377,1811
1781829821379,1747
1781829821361,1711
1781829821363,1702
1781829821365,1712
1781829821367,1746
1781829821369,1786
1781829821371,1833
1781829821373,1866
1781829821375,1874
1781829821377,1844
1781829821379,1795
1781829821400,1758
1781829821402,1752
1781829821404,1769
1781829821406,1802
1781829821408,1840
1781829821410,1882
1781829821412,1901
1781829821414,1901
1781829821416,1864
1781829821418,1813
1781829821400,1768
1781829821402,1764
1781829821404,1796
1781829821406,1832
1781829821408,1879
1781829821410,1917
1781829821412,1949
1781829821414,1958
1781829821416,1933
1781829821418,1873
1781829821474,1826
1781829821476,1812
1781829821478,1840
1781829821480,1887
1781829821482,1936
1781829821484,1977
1781829821486,2010
1781829821488,2011
1781829821490,1982
1781829821492,1945
1781829821474,1916
1781829821476,1920
1781829821478,1951
1781829821480,1990
1781829821482,2038
1781829821484,2087
1781829821486,2115
1781829821488,2117
1781829821490,2093
1781829821492,2042
1781829821511,2011
1781829821513,2015
1781829821515,2042
1781829821517,2087
1781829821519,2144
1781829821521,2195
1781829821523,2233
1781829821525,2213
1781829821527,2169
1781829821529,2116
1781829821511,2083
1781829821513,2088
1781829821515,2113
1781829821517,2146
1781829821519,2182
1781829821521,2226
1781829821523,2259
1781829821525,2263
1781829821527,2243
1781829821529,2196
1781829821511,2149
1781829821513,2134
1781829821515,2147
1781829821517,2179
1781829821519,2205
1781829821521,2225
1781829821523,2254
1781829821525,2252
1781829821527,2214
1781829821529,2157
1781829821550,2102
1781829821552,2092
1781829821554,2114
1781829821556,2145
1781829821558,2174
1781829821560,2193
1781829821562,2202
1781829821564,2195
1781829821566,2142
1781829821568,2074
1781829821550,2007
1781829821552,1964
1781829821554,1959
1781829821556,1980
1781829821558,2008
1781829821560,2034
1781829821562,2033
1781829821564,2014
1781829821566,1962
1781829821568,1899
1781829821588,1841
1781829821590,1817
1781829821592,1821
1781829821594,1838
1781829821596,1868
1781829821598,1891
1781829821600,1902
1781829821602,1895
1781829821604,1836
1781829821606,1756
1781829821588,1710
1781829821590,1702
1781829821592,1727
1781829821594,1757
1781829821596,1788
1781829821598,1819
1781829821600,1836
1781829821602,1837
1781829821604,1806
1781829821606,1755
1781829821623,1704
1781829821625,1668
1781829821627,1666
1781829821629,1695
1781829821631,1735
1781829821633,1779
1781829821635,1813
1781829821637,1816
1781829821639,1785
1781829821641,1737
1781829821623,1693
1781829821625,1671
1781829821627,1666
1781829821629,1701
1781829821631,1739
1781829821633,1774
1781829821635,1793
1781829821637,1796
1781829821639,1765
1781829821641,1712
1781829821700,1673
1781829821702,1646
1781829821704,1653
1781829821706,1681
1781829821708,1713
1781829821710,1751
1781829821712,1778
1781829821714,1777
1781829821716,1738
1781829821718,1685
1781829821700,1640
1781829821702,1632
1781829821704,1651
1781829821706,1695
1781829821708,1737
1781829821710,1772
1781829821712,1794
1781829821714,1794
1781829821716,1763
1781829821718,1707
1781829821700,1647
1781829821702,1624
1781829821704,1634
1781829821706,1675
1781829821708,1718
1781829821710,1753
1781829821712,1774
1781829821714,1785
1781829821716,1759
1781829821718,1701
1781829821773,1645
1781829821775,1625
1781829821777,1644
1781829821779,1682
1781829821781,1735
1781829821783,1787
1781829821785,1818
1781829821787,1808
1781829821789,1766
1781829821791,1709
1781829821773,1653
1781829821775,1636
1781829821777,1657
1781829821779,1704
1781829821781,1751
1781829821783,1779
1781829821785,1793
1781829821787,1781
1781829821789,1737
1781829821791,1677
1781829821773,1630
1781829821775,1616
1781829821777,1645
1781829821779,1684
1781829821781,1729
1781829821783,1767
1781829821785,1790
1781829821787,1785
1781829821789,1743
1781829821791,1687
1781829821773,1638
1781829821775,1616
1781829821777,1627
1781829821779,1651
1781829821781,1683
1781829821783,1704
1781829821785,1723
1781829821787,1730
1781829821789,1716
1781829821791,1686
1781829821809,1648
1781829821811,1628
1781829821813,1644
1781829821815,1692
1781829821817,1741
1781829821819,1774
1781829821821,1798
1781829821823,1798
1781829821825,1771
1781829821827,1723
1781829821809,1683
1781829821811,1661
1781829821813,1685
1781829821815,1737
1781829821817,1782
1781829821819,1822
1781829821821,1846
1781829821823,1850
1781829821825,1825
1781829821827,1778
1781829821877,1749
1781829821879,1738
1781829821881,1768
1781829821883,1799
1781829821885,1838
1781829821887,1884
1781829821889,1911
1781829821891,1917
1781829821893,1899
1781829821895,1862
1781829821877,1819
1781829821879,1802
1781829821881,1817
1781829821883,1860
1781829821885,1902
1781829821887,1942
1781829821889,1970
1781829821891,1970
1781829821893,1927
1781829821895,1866
1781829821878,1810
1781829821880,1773
1781829821882,1775
1781829821884,1804
1781829821886,1830
1781829821888,1862
1781829821890,1886
1781829821892,1882
1781829821894,1844
1781829821896,1805
1781829821911,1765
1781829821913,1729
1781829821915,1737
1781829821917,1782
1781829821919,1825
1781829821921,1860
1781829821923,1870
1781829821925,1847
1781829821927,1806
1781829821929,1753
1781829821944,1703
1781829821946,1688
1781829821948,1698
1781829821950,1731
1781829821952,1778
1781829821954,1822
1781829821956,1863
1781829821958,1871
1781829821960,1847
1781829821962,1805
1781829821944,1769
1781829821946,1762
1781829821948,1778
1781829821950,1804
1781829821952,1838
1781829821954,1884
1781829821956,1924
1781829821958,1927
1781829821960,1892
1781829821962,1839
1781829821944,1789
1781829821946,1769
1781829821948,1776
1781829821950,1803
1781829821952,1835
1781829821954,1866
1781829821956,1883
1781829821958,1876
1781829821960,1839
1781829821962,1780
1781829822013,1714
1781829822015,1679
1781829822017,1698
1781829822019,1746
1781829822021,1819
1781829822023,1908
1781829822025,1989
1781829822027,2076
1781829822029,2144
1781829822031,2201
1781829822013,2273
1781829822015,2388
1781829822017,2543
1781829822019,2721
1781829822021,2883
1781829822023,3018
1781829822025,3081
1781829822027,3073
1781829822029,2985
1781829822031,2841
1781829822051,2684
1781829822053,2555
1781829822055,2457
1781829822057,2396
1781829822059,2357
1781829822061,2320
1781829822063,2294
1781829822065,2245
1781829822067,2166
1781829822069,2067
1781829822051,1980
1781829822053,1929
1781829822055,1908
1781829822057,1904
1781829822059,1915
1781829822061,1919
1781829822063,1925
1781829822065,1918
1781829822067,1883
1781829822069,1829
1781829822088,1782
1781829822090,1756
1781829822092,1748
1781829822094,1764
1781829822096,1798
1781829822098,1838
1781829822100,1872
1781829822102,1879
1781829822104,1848
1781829822106,1805
1781829822088,1760
1781829822090,1740
1781829822092,1759
1781829822094,1795
1781829822096,1833
1781829822098,1870
1781829822100,1892
1781829822102,1902
1781829822104,1869
1781829822106,1819
1781829822125,1781
1781829822127,1770
1781829822129,1788
1781829822131,1828
1781829822133,1874
1781829822135,1915
1781829822137,1943
1781829822139,1948
1781829822141,1921
1781829822143,1875
1781829822125,1829
1781829822127,1818
1781829822129,1842
1781829822131,1880
1781829822133,1925
1781829822135,1964
1781829822137,1981
1781829822139,1972
1781829822141,1956
1781829822143,1923
1781829822125,1894
1781829822127,1888
1781829822129,1907
1781829822131,1943
1781829822133,1981
1781829822135,2007
1781829822137,2031
1781829822139,2032
1781829822141,2006
1781829822143,1954
1781829822161,1902
1781829822163,1892
1781829822165,1924
1781829822167,1981
1781829822169,2037
1781829822171,2081
1781829822173,2112
1781829822175,2130
1781829822177,2123
1781829822179,2079
1781829822161,2039
1781829822163,2020
1781829822165,2040
1781829822167,2089
1781829822169,2149
1781829822171,2202
1781829822173,2243
1781829822175,2251
1781829822177,2222
1781829822179,2179
1781829822237,2133
1781829822239,2112
1781829822241,2118
1781829822243,2147
1781829822245,2196
1781829822247,2234
1781829822249,2258
1781829822251,2262
1781829822253,2222
1781829822255,2172
1781829822237,2129
1781829822239,2114
1781829822241,2124
1781829822243,2149
1781829822245,2178
1781829822247,2214
1781829822249,2236
1781829822251,2226
1781829822253,2190
1781829822255,2130
1781829822275,2054
1781829822277,2018
1781829822279,2019
1781829822281,2041
1781829822283,2074
1781829822285,2087
1781829822287,2099
1781829822289,2092
1781829822291,2050
1781829822293,1976
1781829822275,1907
1781829822277,1869
1781829822279,1868
1781829822281,1892
1781829822283,1916
1781829822285,1939
1781829822287,1947
1781829822289,1940
1781829822291,1901
1781829822293,1836
1781829822275,1777
1781829822277,1757
1781829822279,1771
1781829822281,1807
1781829822283,1849
1781829822285,1880
1781829822287,1900
1781829822289,1897
1781829822291,1865
1781829822293,1817
1781829822311,1765
1781829822313,1727
1781829822315,1719
1781829822317,1739
1781829822319,1768
1781829822321,1811
1781829822323,1852
1781829822325,1866
1781829822327,1843
1781829822329,1789
1781829822311,1726
1781829822313,1703
1781829822315,1710
1781829822317,1740
1781829822319,1774
1781829822321,1800
1781829822323,1825
1781829822325,1829
1781829822327,1798
1781829822329,1744
1781829822347,1695
1781829822349,1677
1781829822351,1697
1781829822353,1736
1781829822355,1782
1781829822357,1830
1781829822359,1859
1781829822361,1863
1781829822363,1824
1781829822365,1768
1781829822347,1714
1781829822349,1691
1781829822351,1691
1781829822353,1719
1781829822355,1760
1781829822357,1806
1781829822359,1839
1781829822361,1847
1781829822363,1829
1781829822365,1791
1781829822387,1757
1781829822389,1736
1781829822391,1733
1781829822393,1755
1781829822395,1781
1781829822397,1803
1781829822399,1829
1781829822401,1831
1781829822403,1803
1781829822405,1771
1781829822387,1735
1781829822389,1716
1781829822391,1732
1781829822393,1774
1781829822395,1819
1781829822397,1839
1781829822399,1855
1781829822401,1864
1781829822403,1835
1781829822405,1786
1781829822460,1739
1781829822462,1728
1781829822464,1745
1781829822466,1775
1781829822468,1820
1781829822470,1863
1781829822472,1896
1781829822474,1903
1781829822476,1876
1781829822478,1828
1781829822460,1776
1781829822462,1740
1781829822464,1738
1781829822466,1771
1781829822468,1816
1781829822470,1854
1781829822472,1889
1781829822474,1903
1781829822476,1878
1781829822478,1823
1781829822460,1769
1781829822462,1747
1781829822464,1749
1781829822466,1781
1781829822468,1831
1781829822470,1871
1781829822472,1902
1781829822474,1918
1781829822476,1897
1781829822478,1848
1781829822500,1801
1781829822502,1777
1781829822504,1783
1781829822506,1810
1781829822508,1849
1781829822510,1886
1781829822512,1907
1781829822514,1908
1781829822516,1887
1781829822518,1841
1781829822500,1798
1781829822502,1776
1781829822504,1790
1781829822506,1840
1781829822508,1896
1781829822510,1935
1781829822512,1956
1781829822514,1965
1781829822516,1945
1781829822518,1907
1781829822537,1863
1781829822539,1842
1781829822541,1854
1781829822543,1891
1781829822545,1929
1781829822547,1973
1781829822549,2009
1781829822551,2022
1781829822553,2010
1781829822555,1968
1781829822537,1919
1781829822539,1891
1781829822541,1892
1781829822543,1916
1781829822545,1956
1781829822547,2006
1781829822549,2050
1781829822551,2066
1781829822553,2043
1781829822555,2002
1781829822572,1970
1781829822574,1968
1781829822576,1990
1781829822578,2019
1781829822580,2054
1781829822582,2088
1781829822584,2110
1781829822586,2110
1781829822588,2072
1781829822590,2013
1781829822572,1952
1781829822574,1918
1781829822576,1923
1781829822578,1938
1781829822580,1963
1781829822582,1995
1781829822584,2034
1781829822586,2050
1781829822588,2018
1781829822590,1946
1781829822645,1887
1781829822647,1864
1781829822649,1882
1781829822651,1914
1781829822653,1956
1781829822655,1997
1781829822657,2034
1781829822659,2042
1781829822661,2019
1781829822663,1980
1781829822645,1933
1781829822647,1899
1781829822649,1902
1781829822651,1931
1781829822653,1965
1781829822655,2003
1781829822657,2030
1781829822659,2035
1781829822661,2005
1781829822663,1957
1781829822645,1914
1781829822647,1895
1781829822649,1910
1781829822651,1939
1781829822653,1963
1781829822655,1994
1781829822657,2018
1781829822659,2025
1781829822661,2008
1781829822663,1964
1781829822683,1919
1781829822685,1888
1781829822687,1900
1781829822689,1936
1781829822691,1975
1781829822693,2018
1781829822695,2049
1781829822697,2063
1781829822699,2029
1781829822701,1969
1781829822683,1903
1781829822685,1860
1781829822687,1856
1781829822689,1891
1781829822691,1941
1781829822693,1999
1781829822695,2062
1781829822697,2115
1781829822699,2154
1781829822701,2194
1781829822718,2249
1781829822720,2333
1781829822722,2473
1781829822724,2652
1781829822726,2851
1781829822728,3056
1781829822730,3229
1781829822732,3322
1781829822734,3319
1781829822736,3244
1781829822718,3131
1781829822720,3010
1781829822722,2897
1781829822724,2807
1781829822726,2734
1781829822728,2665
1781829822730,2610
1781829822732,2549
1781829822734,2461
1781829822736,2361
1781829822783,2286
1781829822785,2234
1781829822787,2206
1781829822789,2206
1781829822791,2222
1781829822793,2235
1781829822795,2237
1781829822797,2224
1781829822799,2198
1781829822801,2144
1781829822783,2085
1781829822785,2044
1781829822787,2042
1781829822789,2065
1781829822791,2094
1781829822793,2123
1781829822795,2151
1781829822797,2156
1781829822799,2119
1781829822801,2054
1781829822821,2005
1781829822823,1981
1781829822825,1995
1781829822827,2028
1781829822829,2070
1781829822831,2121
1781829822833,2161
1781829822835,2172
1781829822837,2150
1781829822839,2107
1781829822821,2062
1781829822823,2037
1781829822825,2047
1781829822827,2080
1781829822829,2118
1781829822831,2163
1781829822833,2211
1781829822835,2231
1781829822837,2226
1781829822839,2181
1781829822821,2131
1781829822823,2105
1781829822825,2117
1781829822827,2145
1781829822829,2175
1781829822831,2210
1781829822833,2244
1781829822835,2265
1781829822837,2245
1781829822839,2199
1781829822853,2153
1781829822855,2134
1781829822857,2147
1781829822859,2181
1781829822861,2232
1781829822863,2284
1781829822865,2324
1781829822867,2334
1781829822869,2320
1781829822871,2272
1781829822853,2232
1781829822855,2206
1781829822857,2213
1781829822859,2249
1781829822861,2302
1781829822863,2360
1781829822865,2399
1781829822867,2412
1781829822869,2390
1781829822871,2353
1781829822886,2310
1781829822888,2291
1781829822890,2305
1781829822892,2346
1781829822894,2396
1781829822896,2451
1781829822898,2493
1781829822900,2507
1781829822902,2478
1781829822904,2428
1781829822886,2381
1781829822888,2358
1781829822890,2361
1781829822892,2399
1781829822894,2454
1781829822896,2494
1781829822898,2527
1781829822900,2537
1781829822902,2519
1781829822904,2479
1781829822952,2435
1781829822954,2408
1781829822956,2413
1781829822958,2432
1781829822960,2457
1781829822962,2478
1781829822964,2505
1781829822966,2504
1781829822968,2485
1781829822970,2428
1781829822952,2355
1781829822954,2305
1781829822956,2299
1781829822958,2323
1781829822960,2360
1781829822962,2382
1781829822964,2389
1781829822966,2377
1781829822968,2339
1781829822970,2273
1781829822987,2214
1781829822989,2174
1781829822991,2159
1781829822993,2170
1781829822995,2186
1781829822997,2202
1781829822999,2212
1781829823001,2205
1781829823003,2174
1781829823005,2122
1781829822987,2055
1781829822989,2015
1781829822991,2008
1781829822993,2020
1781829822995,2040
1781829822997,2071
1781829822999,2097
1781829823001,2099
1781829823003,2062
1781829823005,2002
1781829822987,1953
1781829822989,1935
1781829822991,1942
1781829822993,1966
1781829822995,1993
1781829822997,2012
1781829822999,2025
1781829823001,2027
1781829823003,2007
1781829823005,1984
1781829823021,1941
1781829823023,1909
1781829823025,1915
1781829823027,1952
1781829823029,1988
1781829823031,2014
1781829823033,2038
1781829823035,2038
1781829823037,2011
1781829823039,1968
1781829823021,1897
1781829823023,1854
1781829823025,1863
1781829823027,1896
1781829823029,1939
1781829823031,1979
1781829823033,2013
1781829823035,2031
1781829823037,2022
1781829823039,1973
1781829823087,1923
1781829823089,1899
1781829823091,1902
1781829823093,1922
1781829823095,1957
1781829823097,1994
1781829823099,2018
1781829823101,2029
1781829823103,2011
1781829823105,1967
1781829823122,1927
1781829823124,1907
1781829823126,1913
1781829823128,1939
1781829823130,1970
1781829823132,2007
1781829823134,2044
1781829823136,2053
1781829823138,2028
1781829823140,1991
1781829823122,1950
1781829823124,1927
1781829823126,1927
1781829823128,1961
1781829823130,1997
1781829823132,2031
1781829823134,2060
1781829823136,2071
1781829823138,2055
1781829823140,2016
1781829823122,1965
1781829823124,1928
1781829823126,1920
1781829823128,1946
1781829823130,1982
1781829823132,2016
1781829823134,2032
1781829823136,2049
1781829823138,2035
1781829823140,1997
1781829823162,1951
1781829823164,1920
1781829823166,1924
1781829823168,1941
1781829823170,1974
1781829823172,2010
1781829823174,2044
1781829823176,2062
1781829823178,2050
1781829823180,2005
1781829823162,1950
1781829823164,1910
1781829823166,1909
1781829823168,1938
1781829823170,1980
1781829823172,2021
1781829823174,2071
1781829823176,2095
1781829823178,2079
1781829823180,2026
1781829823162,1962
1781829823164,1920
1781829823166,1916
1781829823168,1945
1781829823170,1985
1781829823172,2017
1781829823174,2047
1781829823176,2061
1781829823178,2041
1781829823180,1997
1781829823224,1944
1781829823226,1915
1781829823228,1922
1781829823230,1937
1781829823232,1966
1781829823234,2000
1781829823236,2031
1781829823238,2050
1781829823240,2025
1781829823242,1965
1781829823224,1895
1781829823226,1860
1781829823228,1871
1781829823230,1905
1781829823232,1952
1781829823234,1993
1781829823236,2021
1781829823238,2047
1781829823240,2033
1781829823242,2000
1781829823257,1967
1781829823259,1954
1781829823261,1953
1781829823263,1976
1781829823265,2006
1781829823267,2032
1781829823269,2061
1781829823271,2078
1781829823273,2070
1781829823275,2026
1781829823257,1982
1781829823259,1961
1781829823261,1979
1781829823263,2011
1781829823265,2049
1781829823267,2085
1781829823269,2114
1781829823271,2127
1781829823273,2097
1781829823275,2029
1781829823288,1959
1781829823290,1914
1781829823292,1920
1781829823294,1945
1781829823296,1979
1781829823298,2004
1781829823300,2023
1781829823302,2023
1781829823304,1986
1781829823306,1934
1781829823288,1885
1781829823290,1856
1781829823292,1852
1781829823294,1872
1781829823296,1905
1781829823298,1943
1781829823300,1976
1781829823302,1997
1781829823304,1986
1781829823306,1948
1781829823350,1883
1781829823352,1845
1781829823354,1839
1781829823356,1860
1781829823358,1895
1781829823360,1938
1781829823362,1970
1781829823364,1973
1781829823366,1951
1781829823368,1911
1781829823350,1867
1781829823352,1836
1781829823354,1824
1781829823356,1842
1781829823358,1888
1781829823360,1938
1781829823362,1961
1781829823364,1970
1781829823366,1952
1781829823368,1901
1781829823350,1847
1781829823352,1817
1781829823354,1823
1781829823356,1847
1781829823358,1883
1781829823360,1923
1781829823362,1953
1781829823364,1951
1781829823366,1916
1781829823368,1853
1781829823386,1787
1781829823388,1747
1781829823390,1744
1781829823392,1795
1781829823394,1878
1781829823396,1970
1781829823398,2062
1781829823400,2155
1781829823402,2242
1781829823404,2314
1781829823386,2394
1781829823388,2510
1781829823390,2663
1781829823392,2830
1781829823394,2985
1781829823396,3121
1781829823398,3192
1781829823400,3181
1781829823402,3115
1781829823404,2977
1781829823453,2806
1781829823455,2649
1781829823457,2527
1781829823459,2454
1781829823461,2404
1781829823463,2368
1781829823465,2338
1781829823467,2294
1781829823469,2232
1781829823471,2146
1781829823453,2065
1781829823455,2012
1781829823457,1996
1781829823459,1999
1781829823461,2002
1781829823463,2025
1781829823465,2044
1781829823467,2049
1781829823469,2024
1781829823471,1981
1781829823489,1922
1781829823491,1876
1781829823493,1863
1781829823495,1881
1781829823497,1908
1781829823499,1944
1781829823501,1977
1781829823503,1991
1781829823505,1975
1781829823507,1933
1781829823489,1881
1781829823491,1848
1781829823493,1845
1781829823495,1873
1781829823497,1911
1781829823499,1946
1781829823501,1974
1781829823503,1983
